I,-0.00928,-0.59033,0.78857,-1.0,0.0,1.0,-7.0,-4.0,7.0,1.0,-1.0,-1.3125,-0.1875,0.375,0.89233,-0.28937,0.11041,-0.32825,0.0,0.0,0.0,-2.0,4.0,3.0,0.0,0.0,2.0,-1.0,-5.0,0.0,0.0,0.0,0.0,0.0,0.0,0.0,0.00879,-0.58252,0.80518,1.0,5.0,5.0,4.0,6.0,5.0,0.0,1.0,-3.3125,-7.75,-10.75,0.89319,-0.29346,0.08514,-0.32996,0.07178,-0.57373,0.79883,0.0,0.0,-5.0,-4.0,-3.0,-2.0,2.0,0.0,1.0625,2.75,-0.5625,0.89197,-0.2926,0.08185,-0.33472
I,-0.01563,-0.52246,0.83496,-2.0,-3.0,2.0,-1.0,-3.0,-3.0,-2.0,-6.0,-0.25,-0.8125,0.75,0.54132,-0.15308,0.23352,-0.79309,-0.01025,-0.51758,0.82666,-5.0,-4.0,-4.0,-2.0,-2.0,-2.0,-1.0,-3.0,-0.1875,-0.875,-0.4375,0.54132,-0.15308,0.23334,-0.79315,0.00342,-0.52197,0.83252,-1.0,-1.0,2.0,-4.0,-1.0,0.0,0.0,4.0,-0.9375,0.375,-5.4375,0.5343,-0.15698,0.23285,-0.7973,0.0,0.0,0.0,-2.0,-4.0,-4.0,-6.0,-7.0,-4.0,-2.0,-3.0,0.0,0.0,0.0,0.0,0.0,0.0,0.0
I,-0.02051,-0.53418,0.84277,-2.0,-2.0,-3.0,-2.0,-2.0,-2.0,-3.0,-1.0,-1.3125,-0.5,-0.0625,0.68982,-0.21295,-0.18549,0.66656,0.0,0.0,0.0,1.0,1.0,5.0,11.0,11.0,3.0,0.0,1.0,0.0,0.0,0.0,0.0,0.0,0.0,0.0,-0.04199,-0.51709,0.83643,-1.0,1.0,1.0,0.0,0.0,2.0,-2.0,-4.0,-2.0,-0.75,-4.5,0.68719,-0.21423,-0.18494,0.66907,-0.03027,-0.55322,0.84717,-2.0,-3.0,-1.0,1.0,-2.0,-1.0,-2.0,-2.0,-0.6875,0.5625,-0.75,0.69067,-0.21301,-0.18585,0.66559
I,-0.021,-0.56006,0.80664,-1.0,-2.0,1.0,-1.0,-1.0,-2.0,-2.0,-2.0,-0.1875,0.125,0.4375,0.9422,-0.28851,0.06085,-0.159,-0.01367,-0.55518,0.80811,0.0,-2.0,-4.0,-4.0,-5.0,-10.0,-4.0,-2.0,0.625,-4.125,-1.75,0.94263,-0.28888,0.05634,-0.15735,0.0,0.0,0.0,-1.0,2.0,3.0,5.0,4.0,4.0,-1.0,-1.0,0.0,0.0,0.0,0.0,0.0,0.0,0.0,0.05078,-0.55273,0.81201,0.0,-2.0,-2.0,-3.0,-3.0,-1.0,0.0,-3.0,0.875,-3.875,1.5625,0.93805,-0.29626,0.03162,-0.17688
I,-0.03418,-0.59277,0.7998,0.0,0.0,-4.0,-5.0,-5.0,-5.0,-2.0,0.0,-0.0625,-0.3125,0.0625,0.19617,-0.08191,-0.29742,0.93079,-0.03711,-0.58545,0.82813,-4.0,-3.0,-2.0,-3.0,-6.0,0.0,-1.0,0.0,4.5625,1.6875,1.8125,0.19446,-0.08411,-0.29517,0.93164,-0.02881,-0.56396,0.8252,-2.0,-1.0,-1.0,-1.0,-1.0,-8.0,-5.0,0.0,-7.1875,-6.3125,-7.75,0.19025,-0.08136,-0.29675,0.93225,0.0,0.0,0.0,-3.0,-1.0,2.0,1.0,4.0,4.0,-1.0,0.0,0.0,0.0,0.0,0.0,0.0,0.0,0.0
I,-0.03662,-0.57715,0.79785,-2.0,-1.0,0.0,-2.0,-1.0,-1.0,-1.0,2.0,-0.25,0.4375,1.625,0.94574,-0.30383,0.05286,-0.10236,-0.02441,-0.58984,0.7915,1.0,-2.0,-3.0,-6.0,-8.0,-8.0,-4.0,4.0,1.25,-7.5,-1.0,0.94623,-0.30432,0.04443,-0.10046,0.0,0.0,0.0,-1.0,0.0,-1.0,-6.0,-2.0,4.0,1.0,-1.0,0.0,0.0,0.0,0.0,0.0,0.0,0.0,0.01318,-0.57666,0.7959,0.0,0.0,0.0,0.0,0.0,0.0,0.0,0.0,3.75,-1.5,0.5625,0.94824,-0.29932,0.03003,-0.10162
I,-0.04639,-0.58496,0.80371,0.0,1.0,3.0,11.0,15.0,4.0,1.0,-2.0,0.625,1.125,0.5625,0.78668,-0.26898,-0.15344,0.534,-0.05225,-0.58447,0.80811,0.0,0.0,0.0,0.0,0.0,0.0,0.0,0.0,0.5625,1.3125,2.0625,0.78619,-0.26947,-0.1521,0.53485,-0.05225,-0.58154,0.80859,-1.0,-2.0,-1.0,0.0,-1.0,-10.0,-4.0,-1.0,0.1875,-0.5625,-1.0625,0.78442,-0.27002,-0.15088,0.53754,-0.06201,-0.58447,0.80908,1.0,0.0,-1.0,-1.0,-1.0,0.0,-1.0,-1.0,-0.375,2.0625,-3.0625,0.7854,-0.27045,-0.15002,0.53613
I,-0.05176,0.74219,0.66895,9.0,11.0,-2.0,-4.0,-4.0,-5.0,-6.0,-8.0,-0.75,-3.375,3.4375,-0.83112,-0.35486,-0.1875,-0.38507,-0.12793,0.81055,0.60645,3.0,6.0,1.0,-1.0,1.0,0.0,2.0,-1.0,2.125,-16.3125,-5.0625,-0.83374,-0.36224,-0.1748,-0.37842,-0.05469,0.69775,0.81689,9.0,7.0,3.0,2.0,-1.0,21.0,12.0,10.0,1.5625,63.4375,-59.6875,-0.86011,-0.32581,-0.19556,-0.34052,-0.36963,0.66553,0.59424,-7.0,1.0,-6.0,-4.0,0.0,3.0,2.0,-3.0,25.75,100.4375,-13.375,-0.83472,-0.28156,-0.35565,-0.31244
I,-0.05518,-0.60449,0.79102,0.0,-3.0,-1.0,1.0,-1.0,2.0,2.0,1.0,-0.25,-0.625,-0.1875,-0.14667,0.07806,0.31421,-0.93475,-0.05225,-0.61572,0.79639,-1.0,-4.0,-4.0,-2.0,-4.0,-2.0,0.0,-3.0,0.5625,-2.875,-1.75,-0.14709,0.07538,0.3139,-0.935,-0.04736,-0.59863,0.79932,-2.0,-5.0,-5.0,-5.0,-5.0,-7.0,-4.0,3.0,-1.3125,-0.875,-4.0,-0.15045,0.07202,0.31525,-0.93427,-0.02832,-0.60693,0.79785,-1.0,-1.0,-3.0,-7.0,-6.0,-5.0,-2.0,-3.0,0.625,-0.8125,-3.0,-0.15582,0.06842,0.31415,-0.93402
I,-0.07471,0.7749,0.65039,-8.0,-8.0,1.0,-3.0,-1.0,0.0,-7.0,0.0,-1.875,-7.1875,1.1875,-0.89948,-0.40393,-0.08978,-0.14069,-0.05176,0.8877,0.78906,1.0,-7.0,1.0,3.0,1.0,-6.0,0.0,-2.0,0.5,-1.6875,-45.6875,-0.90442,-0.40442,-0.07532,-0.11359,-0.27637,0.63525,0.67773,6.0,11.0,10.0,13.0,5.0,-3.0,-1.0,7.0,34.9375,90.8125,-81.25,-0.90735,-0.36273,-0.21259,0.00513,0.0,0.0,0.0,2.0,4.0,1.0,-7.0,-1.0,-1.0,-14.0,-4.0,0.0,0.0,0.0,0.0,0.0,0.0,0.0
I,-0.09424,-0.56396,0.81934,-2.0,-2.0,1.0,1.0,-2.0,-3.0,-3.0,0.0,-0.1875,0.0625,0.125,0.67749,-0.24536,-0.17596,0.67072,0.0,0.0,0.0,-2.0,-2.0,-4.0,-3.0,-5.0,3.0,0.0,-2.0,0.0,0.0,0.0,0.0,0.0,0.0,0.0,0.0,0.0,0.0,-1.0,-3.0,-5.0,-4.0,-1.0,-3.0,-2.0,-1.0,0.0,0.0,0.0,0.0,0.0,0.0,0.0,-0.08887,-0.56348,0.82178,1.0,0.0,-1.0,-3.0,-2.0,0.0,3.0,-2.0,0.25,-0.6875,-1.125,0.69135,-0.24634,-0.16864,0.6579
I,-0.09473,0.74854,0.66748,-2.0,-7.0,-6.0,0.0,-2.0,1.0,-2.0,-1.0,-1.75,-1.0,0.5,-0.89923,-0.38629,-0.12469,-0.16345,-0.104,0.77881,0.64941,-5.0,-4.0,-2.0,-3.0,0.0,-2.0,0.0,2.0,-5.25,-31.6875,-5.625,-0.90289,-0.38794,-0.10645,-0.15192,0.0,0.0,0.0,-2.0,-1.0,6.0,-5.0,-11.0,8.0,-22.0,-15.0,0.0,0.0,0.0,0.0,0.0,0.0,0.0,-0.43018,0.59424,0.5874,-2.0,-1.0,10.0,8.0,1.0,-3.0,-2.0,-1.0,12.8125,112.1875,-20.6875,-0.88428,-0.34442,-0.30969,-0.05994
I,-0.09766,-0.5332,0.83105,-1.0,1.0,-1.0,-3.0,-4.0,-3.0,2.0,9.0,-0.0625,-0.125,-0.6875,0.57452,-0.20782,-0.19391,0.76752,-0.09033,-0.52539,0.83057,-2.0,-2.0,2.0,-2.0,0.0,-1.0,-2.0,-3.0,1.3125,0.0,-2.375,0.57611,-0.20691,-0.19318,0.76678,0.0,0.0,0.0,3.0,0.0,-3.0,-3.0,-3.0,-1.0,0.0,1.0,0.0,0.0,0.0,0.0,0.0,0.0,0.0,-0.10107,-0.51953,0.8418,-1.0,1.0,3.0,4.0,5.0,-2.0,-2.0,-1.0,0.3125,-0.625,-1.375,0.57928,-0.2049,-0.19128,0.76538
I,-0.10254,0.77588,0.63916,-1.0,3.0,-3.0,-3.0,1.0,2.0,0.0,-5.0,-0.25,1.625,-0.4375,-0.90363,-0.42511,-0.05225,0.01025,-0.09424,0.76416,0.63428,1.0,-11.0,-5.0,-2.0,-4.0,0.0,-1.0,2.0,-0.125,-2.875,1.9375,-0.90332,-0.42572,-0.05243,0.00989,-0.10254,0.78076,0.6377,-5.0,14.0,5.0,0.0,1.0,-1.0,-7.0,-67.0,-2.75,-1.875,0.8125,-0.90344,-0.42572,-0.05115,0.00665,-0.10498,0.59912,0.78516,-11.0,-3.0,2.0,8.0,23.0,-5.0,-5.0,-6.0,-17.0625,1.125,-11.4375,-0.93842,-0.33862,-0.06726,-0.0155
I,-0.11865,-0.58643,0.7959,-1.0,-2.0,0.0,-3.0,-3.0,2.0,-1.0,0.0,-0.0625,-0.6875,-0.875,-0.53223,0.22797,0.22229,-0.78448,-0.12061,-0.59229,0.79004,0.0,-4.0,-5.0,-8.0,-6.0,-5.0,-2.0,0.0,0.4375,-6.9375,-4.1875,-0.53369,0.22278,0.2254,-0.78412,-0.09619,-0.58936,0.81006,0.0,-3.0,-8.0,-9.0,-12.0,-7.0,-2.0,-2.0,-1.3125,-0.125,-9.0625,-0.54034,0.2171,0.22931,-0.77997,-0.04932,-0.59424,0.79736,-1.0,-5.0,-5.0,-1.0,-1.0,-6.0,-7.0,-2.0,1.75,-0.9375,-7.9375,-0.5498,0.21246,0.23248,-0.77368
I,-0.12402,0.80176,0.60596,-5.0,-8.0,-11.0,-4.0,-4.0,-1.0,-4.0,-5.0,-0.75,-0.375,1.5,-0.29236,-0.07996,-0.44275,-0.84393,-0.15088,0.81396,0.5835,6.0,3.0,-8.0,-6.0,-9.0,-10.0,-23.0,-8.0,-6.125,-4.5625,3.25,-0.29077,-0.08087,-0.4397,-0.84595,-0.16943,0.92139,0.66748,-1.0,-6.0,-10.0,-9.0,-14.0,5.0,9.0,-1.0,-42.25,10.5,-43.25,-0.31866,-0.06628,-0.41705,-0.84863,-0.29541,0.64063,0.67041,-8.0,-7.0,-8.0,-13.0,-2.0,-2.0,0.0,-7.0,20.625,105.125,-46.25,-0.3371,0.05444,-0.43237,-0.83459
I,-0.12451,-0.52686,0.82568,1.0,1.0,3.0,4.0,0.0,6.0,5.0,2.0,0.8125,1.125,1.375,0.95654,-0.28156,0.04846,0.05811,-0.12744,-0.54053,0.8252,-1.0,-1.0,-4.0,-6.0,-3.0,-2.0,-1.0,-3.0,4.0625,-3.875,5.875,0.95709,-0.27863,0.04578,0.06476,0.0,0.0,0.0,-2.0,2.0,3.0,5.0,3.0,6.0,3.0,-2.0,0.0,0.0,0.0,0.0,0.0,0.0,0.0,-0.08057,-0.5127,0.84375,-1.0,-2.0,-1.0,0.0,-2.0,-5.0,1.0,0.0,1.875,-4.75,-1.0,0.95929,-0.27319,0.02686,0.06567
I,-0.12744,-0.60449,0.77832,-2.0,-2.0,-2.0,0.0,-7.0,-7.0,-4.0,-11.0,0.125,0.5,-0.625,-0.78058,0.30652,0.12183,-0.53094,0.0,0.0,0.0,-1.0,2.0,1.0,-4.0,-3.0,5.0,1.0,-7.0,0.0,0.0,0.0,0.0,0.0,0.0,0.0,-0.12793,-0.59668,0.78223,0.0,-2.0,-1.0,-8.0,-8.0,-2.0,-2.0,-9.0,0.625,0.875,-1.5625,-0.78455,0.30566,0.12299,-0.52533,-0.11963,-0.60352,0.77832,1.0,0.0,0.0,-2.0,-3.0,1.0,0.0,2.0,-0.375,-0.5625,-2.3125,-0.78625,0.30322,0.12286,-0.52417
I,-0.13037,-0.55713,0.81152,3.0,5.0,5.0,-2.0,5.0,7.0,8.0,7.0,-0.5,0.5625,-1.3125,0.71637,-0.26862,-0.14362,0.62769,-0.12646,-0.56055,0.80713,0.0,-1.0,0.0,2.0,6.0,-2.0,-4.0,-1.0,-1.125,1.1875,-0.6875,0.71692,-0.26996,-0.14343,0.62653,-0.12305,-0.5625,0.81445,-3.0,0.0,1.0,-1.0,1.0,1.0,0.0,0.0,0.4375,0.9375,-1.6875,0.71759,-0.27008,-0.14325,0.62573,-0.12744,-0.56104,0.81201,-1.0,-3.0,-1.0,0.0,0.0,-1.0,3.0,2.0,0.25,1.6875,-3.8125,0.72131,-0.27039,-0.14423,0.62103
I,-0.13281,0.74854,0.6748,4.0,4.0,-2.0,-4.0,-1.0,0.0,1.0,-1.0,-0.125,-2.6875,2.875,-0.52429,-0.29138,0.28455,0.74786,-0.16943,0.74072,0.6333,1.0,3.0,-1.0,3.0,-1.0,0.0,0.0,-10.0,-6.375,-20.75,5.0,-0.52405,-0.2818,0.28876,0.75006,-0.0835,0.91211,1.00244,-1.0,-2.0,3.0,2.0,10.0,-3.0,-26.0,2.0,-42.6875,17.0,-66.6875,-0.48859,-0.25928,0.28479,0.7829,-0.20117,0.61426,0.70361,-3.0,0.0,8.0,7.0,6.0,0.0,-5.0,-12.0,19.5625,149.6875,-84.0,-0.43939,-0.36963,0.18378,0.79779
I,-0.13477,-0.59912,0.79688,-2.0,-2.0,-4.0,-7.0,-10.0,-3.0,0.0,-1.0,0.5,1.3125,0.3125,-0.78784,0.30365,0.11432,-0.52356,-0.14355,-0.59912,0.78906,-1.0,0.0,1.0,4.0,4.0,5.0,1.0,-1.0,0.1875,-0.4375,-1.625,-0.78815,0.30273,0.11389,-0.52368,-0.1377,-0.59033,0.79297,-1.0,-2.0,-1.0,3.0,0.0,5.0,3.0,0.0,0.75,3.625,-3.1875,-0.79095,0.30322,0.11285,-0.51941,-0.11133,-0.60205,0.78174,-1.0,-1.0,0.0,-4.0,-2.0,-2.0,1.0,0.0,1.4375,-1.0,-4.625,-0.79462,0.30103,0.11298,-0.51508
I,-0.13818,-0.5708,0.79688,-1.0,-2.0,-7.0,-8.0,-10.0,-7.0,-3.0,-2.0,0.3125,3.0,0.0,0.63849,-0.14978,0.27643,-0.70245,-0.13818,-0.56348,0.7998,0.0,0.0,1.0,-4.0,0.0,2.0,3.0,2.0,-0.5,0.0625,-0.5625,0.63855,-0.14813,0.27722,-0.70245,-0.13428,-0.58838,0.80322,0.0,-1.0,-1.0,2.0,3.0,0.0,0.0,-2.0,1.3125,-1.8125,-4.875,0.63641,-0.15002,0.27484,-0.70496,-0.14209,-0.55957,0.78955,0.0,1.0,4.0,5.0,4.0,-1.0,-2.0,0.0,-0.9375,-1.625,-3.875,0.6322,-0.15356,0.27454,-0.70807
I,-0.15332,0.7959,0.61865,3.0,-2.0,-3.0,2.0,1.0,-1.0,1.0,-6.0,0.0,-1.5,-0.75,-0.33563,-0.08514,-0.43488,-0.83136,-0.18213,0.77637,0.5874,-3.0,5.0,7.0,4.0,6.0,4.0,-23.0,21.0,-17.9375,-2.625,14.5,-0.33264,-0.08661,-0.42725,-0.8363,-0.14453,0.74902,0.77734,0.0,-1.0,5.0,5.0,4.0,6.0,-1.0,-10.0,-91.25,-11.9375,-4.5,-0.32635,-0.06836,-0.34894,-0.87585,-0.01758,0.60449,0.80859,-29.0,-7.0,-4.0,-11.0,-24.0,11.0,-10.0,-35.0,21.0,14.9375,-17.6875,-0.32739,-0.06146,-0.33002,-0.8833
I,-0.15527,-0.59473,0.79395,0.0,-3.0,-8.0,-7.0,-4.0,-11.0,-3.0,-2.0,-1.75,0.125,0.875,-0.40149,0.20483,0.25,-0.85699,-0.15479,-0.59619,0.79053,-1.0,-3.0,-6.0,-8.0,-11.0,-9.0,-3.0,-1.0,-0.875,1.0625,0.4375,-0.40076,0.20721,0.25159,-0.85626,-0.15674,-0.59717,0.78955,-1.0,-1.0,0.0,5.0,5.0,2.0,-2.0,-3.0,0.3125,-1.125,-2.3125,-0.40149,0.20715,0.25232,-0.85571,-0.14014,-0.59619,0.7959,0.0,0.0,-2.0,-6.0,-5.0,1.0,3.0,0.0,1.0625,0.3125,-1.8125,-0.40735,0.20355,0.25421,-0.85327
I,-0.16016,0.76709,0.63623,7.0,-5.0,-4.0,0.0,0.0,4.0,18.0,26.0,-0.875,-2.4375,1.75,-0.53809,-0.32001,0.28516,0.72577,-0.26221,0.83496,0.58447,-2.0,4.0,9.0,12.0,4.0,-7.0,0.0,14.0,-18.9375,-17.125,-1.5,-0.53992,-0.30505,0.28455,0.73102,-0.16943,0.64746,0.88574,-4.0,-10.0,-24.0,-14.0,-12.0,0.0,-7.0,-10.0,0.4375,84.8125,-53.6875,-0.52826,-0.30914,0.2066,0.76337,-0.5459,0.53711,0.52539,2.0,6.0,6.0,-3.0,13.0,-10.0,-7.0,3.0,27.5,111.6875,-23.0625,-0.47723,-0.47815,0.09692,0.7309
I,-0.16992,-0.57959,0.81299,-1.0,-2.0,-1.0,-2.0,-3.0,4.0,5.0,-1.0,-0.625,0.5,-1.6875,0.03864,0.07733,0.30511,-0.94843,-0.1665,-0.57813,0.80713,-3.0,-4.0,-3.0,-2.0,-4.0,-7.0,-5.0,-4.0,-3.1875,-3.0,-6.375,0.03351,0.07343,0.30768,-0.94806,-0.12549,-0.59668,0.81152,-2.0,0.0,-4.0,-4.0,-5.0,-5.0,-4.0,0.0,0.375,-1.1875,-4.8125,0.02112,0.06317,0.30981,-0.94849,-0.13135,-0.59082,0.80957,-1.0,-1.0,1.0,2.0,5.0,-2.0,-4.0,-2.0,-0.0625,-4.125,2.0625,0.02502,0.05804,0.31067,-0.94843
I,-0.16992,0.74756,0.67285,7.0,4.0,5.0,-1.0,4.0,3.0,1.0,7.0,-4.0,1.5625,1.8125,-0.32764,-0.05652,-0.40729,-0.85071,-0.17041,0.73779,0.66602,-9.0,-2.0,-3.0,-4.0,-1.0,-3.0,-2.0,-4.0,-0.375,-0.6875,-3.8125,-0.32941,-0.05511,-0.4079,-0.84979,-0.1792,0.74512,0.66406,14.0,12.0,3.0,-3.0,1.0,1.0,3.0,11.0,-2.875,-0.4375,3.3125,-0.32782,-0.05756,-0.40613,-0.85107,-0.24609,0.81934,0.80371,9.0,0.0,-9.0,1.0,4.0,7.0,2.0,1.0,-3.0,25.0625,-73.9375,-0.35602,-0.05206,-0.41492,-0.83575
I,-0.18164,0.75635,0.62939,-6.0,-3.0,0.0,1.0,-1.0,-3.0,-3.0,-7.0,-0.6875,-4.375,-0.875,-0.32312,-0.05914,-0.42725,-0.84241,0.0,0.0,0.0,-16.0,-18.0,-13.0,-8.0,-16.0,3.0,2.0,2.0,0.0,0.0,0.0,0.0,0.0,0.0,0.0,-0.32861,0.55664,0.71289,-3.0,4.0,8.0,2.0,6.0,-4.0,4.0,3.0,23.1875,124.625,-48.875,-0.41583,0.08057,-0.45306,-0.78448,0.0,0.0,0.0,-10.0,-18.0,-8.0,-25.0,-12.0,-6.0,-11.0,-8.0,0.0,0.0,0.0,0.0,0.0,0.0,0.0
I,-0.19043,0.76758,0.6377,2.0,-1.0,-8.0,-6.0,-5.0,-1.0,0.0,1.0,0.1875,0.1875,0.75,-0.55084,-0.33545,0.26678,0.71613,-0.19434,0.75342,0.62988,9.0,3.0,-2.0,-2.0,-1.0,1.0,3.0,21.0,-1.4375,-3.1875,0.8125,-0.55042,-0.33478,0.26672,0.7168,-0.18359,0.88477,0.7124,9.0,-3.0,-13.0,-18.0,-18.0,-2.0,-3.0,6.0,-12.6875,-21.8125,-57.25,-0.53046,-0.31732,0.27161,0.73767,-0.34961,0.59521,0.71484,3.0,6.0,5.0,13.0,11.0,-1.0,-4.0,-5.0,15.9375,93.5625,-52.75,-0.48206,-0.37915,0.16614,0.77216
I,-0.19287,0.75537,0.64746,-7.0,5.0,7.0,4.0,2.0,2.0,2.0,3.0,0.375,-1.0,-0.125,-0.90399,-0.4165,-0.06897,0.06818,-0.20557,0.74756,0.69971,-7.0,-5.0,0.0,0.0,2.0,1.0,7.0,-17.0,-30.9375,5.625,31.3125,-0.91211,-0.4021,-0.06189,0.05115,-0.21875,0.63477,0.82324,9.0,7.0,0.0,0.0,-23.0,-7.0,11.0,80.0,-4.75,-13.9375,-7.4375,-0.94104,-0.32709,-0.08282,0.02588,-0.02246,0.68652,0.69873,-33.0,-20.0,16.0,5.0,34.0,14.0,3.0,-22.0,12.9375,6.125,-38.0,-0.92218,-0.36859,-0.07123,0.09338
I,-0.19531,0.74854,0.64746,-2.0,-3.0,-3.0,-1.0,-3.0,-1.0,0.0,-4.0,-0.25,0.6875,-1.3125,-0.32397,-0.0451,-0.41919,-0.84698,-0.19482,0.75,0.65283,2.0,-2.0,-4.0,-3.0,-2.0,-2.0,-3.0,-1.0,-0.75,0.75,1.0,-0.32318,-0.04517,-0.41956,-0.84711,-0.27148,0.79443,0.62549,-3.0,0.0,2.0,-6.0,-14.0,-25.0,-26.0,-9.0,-1.125,1.8125,6.9375,-0.32037,-0.04407,-0.42017,-0.8479,-0.21631,0.78076,0.69141,0.0,-3.0,7.0,10.0,17.0,0.0,-2.0,9.0,-56.375,6.375,2.5,-0.30878,-0.02277,-0.38574,-0.86914
I,-0.22119,0.78564,0.60254,-5.0,-6.0,-11.0,-9.0,-3.0,-1.0,-1.0,0.0,-0.5625,-0.4375,-0.5625,-0.56189,-0.36292,0.25891,0.69684,-0.26221,0.7832,0.57764,-3.0,-2.0,-4.0,0.0,4.0,6.0,5.0,-11.0,-2.3125,-10.1875,5.625,-0.56293,-0.35919,0.2616,0.6969,-0.25439,0.86768,0.78223,10.0,3.0,-2.0,-3.0,-8.0,-6.0,-4.0,-4.0,-62.4375,28.9375,-42.3125,-0.55005,-0.34149,0.23199,0.72595,-0.29492,0.60156,0.7168,6.0,4.0,7.0,7.0,0.0,-1.0,-8.0,5.0,7.5625,92.0625,-38.1875,-0.52124,-0.40106,0.15576,0.737
I,-0.23779,0.76904,0.60889,0.0,-5.0,-8.0,-2.0,-2.0,-2.0,-6.0,-15.0,0.25,-0.375,0.6875,-0.33075,-0.03534,-0.44171,-0.83331,-0.24951,0.77832,0.604,5.0,5.0,-10.0,-6.0,2.0,6.0,5.0,7.0,-1.9375,-2.1875,-1.125,-0.33221,-0.03619,-0.44098,-0.83301,-0.34717,0.77734,0.66455,-4.0,-6.0,-9.0,-7.0,-2.0,4.0,14.0,2.0,-21.375,37.5,-40.125,-0.35101,0.00287,-0.44421,-0.82434,-0.40918,0.63428,0.65332,-1.0,1.0,8.0,1.0,10.0,2.0,6.0,-6.0,0.75,77.6875,-18.3125,-0.36249,0.10114,-0.46094,-0.80377
I,-0.24023,0.78223,0.62207,-9.0,-3.0,2.0,0.0,0.0,1.0,1.0,-2.0,-0.0625,-1.5625,0.4375,-0.31055,-0.02704,-0.44379,-0.84021,-0.28076,0.86475,0.56982,5.0,-7.0,-18.0,-8.0,-6.0,-5.0,-13.0,11.0,-4.75,-6.0625,-18.6875,-0.31409,-0.02509,-0.44397,-0.83887,-0.33301,0.64453,0.6709,-1.0,-3.0,1.0,-6.0,-7.0,-8.0,-1.0,1.0,-29.3125,18.125,-67.0,-0.36865,0.03253,-0.4151,-0.83112,-0.51953,0.59033,0.55176,4.0,8.0,6.0,13.0,26.0,4.0,0.0,-8.0,3.3125,71.0625,-18.75,-0.36603,0.13477,-0.45135,-0.80261
I,-0.25146,0.75195,0.64307,5.0,1.0,-6.0,-5.0,-3.0,-2.0,0.0,1.0,-0.375,-3.75,2.0625,0.27728,0.2533,-0.34375,-0.86072,-0.25732,0.79297,0.64014,4.0,3.0,-1.0,0.0,1.0,0.0,-1.0,-1.0,17.125,-22.375,-31.875,0.24274,0.24219,-0.35419,-0.87006,-0.42285,0.63379,0.58984,5.0,7.0,-1.0,2.0,5.0,2.0,2.0,4.0,1.4375,71.5625,-42.875,0.16956,0.34576,-0.31781,-0.86646,-0.62891,0.65381,0.46436,-9.0,-5.0,-11.0,1.0,-3.0,-2.0,3.0,-2.0,-22.9375,21.25,23.625,0.22333,0.43604,-0.28748,-0.823
I,-0.25146,0.7876,0.5542,0.0,0.0,0.0,0.0,0.0,0.0,0.0,0.0,-3.5625,-12.25,6.8125,-0.5625,-0.37976,0.25995,0.68689,-0.29346,0.92871,0.73291,-5.0,-7.0,-10.0,-15.0,-9.0,-14.0,-12.0,-9.0,-45.875,-4.4375,-24.625,-0.5545,-0.34338,0.2569,0.71313,-0.32715,0.65918,0.60352,9.0,10.0,-17.0,-14.0,-5.0,-7.0,0.0,0.0,26.3125,109.4375,-29.25,-0.54749,-0.44037,0.15918,0.69354,-0.52734,0.67676,0.40332,2.0,3.0,-11.0,-4.0,-4.0,-1.0,6.0,-1.0,5.25,61.25,7.5,-0.54474,-0.54675,0.09296,0.62903
I,-0.26563,0.74805,0.61816,0.0,3.0,5.0,-1.0,1.0,-1.0,0.0,0.0,-1.4375,0.0,0.1875,-0.38306,-0.03552,-0.43842,-0.81232,-0.34424,0.78955,0.62012,5.0,3.0,-5.0,-7.0,-19.0,-18.0,-15.0,0.0,-3.875,-5.9375,6.5,-0.38019,-0.04156,-0.43481,-0.81531,-0.42334,0.64697,0.64941,1.0,-4.0,-4.0,-2.0,17.0,-8.0,-20.0,-9.0,-32.1875,91.8125,-60.9375,-0.39154,0.04938,-0.4303,-0.81195,-0.53467,0.57178,0.49707,0.0,-6.0,0.0,0.0,11.0,1.0,3.0,14.0,-7.25,78.6875,6.5625,-0.35309,0.17303,-0.48529,-0.78101
I,-0.29199,0.81152,0.54297,-6.0,-6.0,3.0,0.0,4.0,-1.0,-4.0,3.0,-1.0,0.3125,1.75,-0.58246,-0.41998,0.23041,0.65668,-0.31152,0.79736,0.52197,-8.0,0.0,6.0,1.0,-3.0,-1.0,1.0,31.0,-5.625,-12.8125,11.6875,-0.58746,-0.41425,0.23187,0.6554,-0.31445,0.84912,0.62451,3.0,2.0,-3.0,-4.0,-11.0,1.0,-3.0,5.0,-55.75,-4.25,-35.375,-0.57751,-0.38306,0.21576,0.68787,0.0,0.0,0.0,17.0,7.0,8.0,3.0,4.0,9.0,8.0,15.0,0.0,0.0,0.0,0.0,0.0,0.0,0.0
I,-9.8E-4,0.74756,0.67871,2.0,2.0,-2.0,1.0,0.0,1.0,-1.0,1.0,2.6875,-1.6875,0.375,-0.56659,-0.25061,-0.31293,-0.71997,-0.05127,0.83447,0.70801,3.0,-2.0,-2.0,-2.0,-2.0,-3.0,7.0,11.0,1.25,2.125,-20.125,-0.57562,-0.25403,-0.31415,-0.711,-0.14307,0.70752,0.72852,3.0,6.0,1.0,-2.0,-1.0,1.0,18.0,2.0,-1.4375,54.625,-64.6875,-0.61499,-0.17957,-0.37042,-0.67267,-0.39502,0.63623,0.57373,1.0,7.0,16.0,18.0,6.0,6.0,6.0,4.0,-3.4375,78.3125,-16.75,-0.59985,-0.06512,-0.45776,-0.65308
I,0.0,0.0,0.0,-2.0,1.0,-1.0,-3.0,-1.0,-2.0,-3.0,0.0,0.0,0.0,0.0,0.0,0.0,0.0,0.0,-0.16992,-0.55713,0.7876,-1.0,0.0,0.0,-2.0,-2.0,-1.0,0.0,-1.0,-0.3125,-0.25,-1.6875,0.9386,-0.28357,0.13556,-0.14203,-0.16846,-0.55859,0.80273,1.0,3.0,11.0,13.0,10.0,-3.0,-6.0,-16.0,-0.25,-2.875,-6.125,0.93787,-0.28485,0.13159,-0.14819,0.0,0.0,0.0,0.0,-1.0,-2.0,-5.0,-3.0,5.0,2.0,-3.0,0.0,0.0,0.0,0.0,0.0,0.0,0.0
I,0.0,0.0,0.0,-2.0,2.0,2.0,-4.0,2.0,0.0,-2.0,-1.0,0.0,0.0,0.0,0.0,0.0,0.0,0.0,-0.05957,-0.56738,0.81299,1.0,1.0,6.0,3.0,2.0,1.0,3.0,7.0,-0.1875,-0.6875,2.8125,0.70569,-0.24115,-0.18127,0.64105,-0.08301,-0.57568,0.81445,-1.0,-2.0,-5.0,-7.0,-7.0,-5.0,-2.0,-2.0,1.0625,3.0625,7.375,0.69592,-0.23901,-0.17261,0.65472,-0.09277,-0.55908,0.81787,0.0,0.0,-5.0,-3.0,-2.0,-3.0,-3.0,-4.0,-0.8125,2.5625,-1.125,0.69476,-0.24677,-0.17023,0.65375
I,0.0,0.0,0.0,-3.0,-2.0,-7.0,-18.0,-17.0,-1.0,-2.0,-32.0,0.0,0.0,0.0,0.0,0.0,0.0,0.0,-0.0625,-0.61621,0.78418,0.0,1.0,2.0,0.0,2.0,4.0,3.0,0.0,-0.375,-2.0625,-1.8125,0.27179,-0.12311,-0.29822,0.90662,-0.08301,-0.59717,0.77979,-1.0,0.0,2.0,-2.0,-1.0,-3.0,-3.0,-3.0,5.0625,-1.1875,-2.875,0.2746,-0.12384,-0.29443,0.90692,0.0,0.0,0.0,-2.0,3.0,3.0,9.0,11.0,1.0,0.0,-1.0,0.0,0.0,0.0,0.0,0.0,0.0,0.0
I,0.0,0.0,0.0,-7.0,-2.0,10.0,3.0,1.0,1.0,2.0,-25.0,0.0,0.0,0.0,0.0,0.0,0.0,0.0,-0.26611,0.78662,0.6543,-5.0,-6.0,4.0,2.0,3.0,4.0,-4.0,-13.0,-74.25,-13.1875,13.625,-0.33405,-0.07379,-0.39392,-0.85315,0.0,0.0,0.0,10.0,6.0,10.0,20.0,61.0,-10.0,5.0,13.0,0.0,0.0,0.0,0.0,0.0,0.0,0.0,0.0,0.0,0.0,10.0,14.0,0.0,-4.0,-2.0,2.0,6.0,11.0,0.0,0.0,0.0,0.0,0.0,0.0,0.0
I,0.0,0.0,0.0,0.0,-2.0,-1.0,-6.0,-2.0,6.0,1.0,-1.0,0.0,0.0,0.0,0.0,0.0,0.0,0.0,0.01563,-0.54004,0.82227,1.0,0.0,0.0,2.0,3.0,0.0,-2.0,-1.0,-0.0625,-1.3125,-0.75,0.82458,-0.24579,0.14008,-0.48993,0.0,0.0,0.0,-2.0,-3.0,-3.0,-4.0,-4.0,-8.0,-5.0,1.0,0.0,0.0,0.0,0.0,0.0,0.0,0.0,0.0,0.0,0.0,-2.0,-2.0,-3.0,0.0,-4.0,-2.0,-2.0,-2.0,0.0,0.0,0.0,0.0,0.0,0.0,0.0
I,0.0,0.0,0.0,0.0,-3.0,-8.0,-10.0,-11.0,-2.0,-2.0,4.0,0.0,0.0,0.0,0.0,0.0,0.0,0.0,-0.09375,-0.54639,0.8252,-2.0,0.0,0.0,0.0,1.0,0.0,-2.0,-1.0,0.0,0.6875,-0.625,0.6275,-0.22357,-0.18567,0.72229,-0.09229,-0.55029,0.82764,0.0,-1.0,-3.0,-1.0,-2.0,0.0,2.0,20.0,-0.75,1.25,-2.375,0.62982,-0.22534,-0.18597,0.7196,-0.07031,-0.54346,0.82617,-2.0,-6.0,-6.0,-9.0,-9.0,-3.0,-4.0,-1.0,0.5,-0.3125,-2.3125,0.63501,-0.22498,-0.18622,0.71509
I,0.0,0.0,0.0,0.0,0.0,-2.0,-1.0,0.0,-3.0,-5.0,10.0,0.0,0.0,0.0,0.0,0.0,0.0,0.0,-0.19775,-0.59326,0.7749,-1.0,-1.0,-2.0,-4.0,-4.0,2.0,1.0,-1.0,0.75,-0.1875,0.625,0.60297,-0.27954,-0.17072,0.72742,-0.19287,-0.59717,0.7832,0.0,-2.0,-1.0,1.0,-3.0,0.0,-3.0,11.0,0.625,-0.5,0.375,0.60297,-0.27917,-0.17084,0.72754,-0.20947,-0.57422,0.78125,-1.0,-2.0,-1.0,-5.0,-6.0,-6.0,-2.0,-3.0,-3.1875,-0.4375,-4.125,0.60266,-0.28009,-0.17102,0.72736
I,0.0,0.0,0.0,0.0,0.0,0.0,0.0,0.0,0.0,0.0,0.0,0.0,0.0,0.0,0.0,0.0,0.0,0.0,-0.30811,0.79736,0.60791,1.0,2.0,3.0,3.0,8.0,2.0,1.0,7.0,41.1875,70.625,-41.5,-0.50757,-0.12885,-0.45642,-0.71942,-0.4209,0.70215,0.44824,-9.0,-16.0,-15.0,-12.0,-6.0,-6.0,2.0,-12.0,-1.5625,34.875,-20.8125,-0.4975,-0.01862,-0.54718,-0.67297,-0.59375,0.77148,0.46289,-3.0,-8.0,-9.0,-14.0,-3.0,11.0,27.0,2.0,-20.25,-11.4375,-18.5,-0.48254,0.03467,-0.51672,-0.70642
I,0.0,0.0,0.0,0.0,2.0,1.0,2.0,1.0,1.0,-1.0,-1.0,0.0,0.0,0.0,0.0,0.0,0.0,0.0,0.0,0.0,0.0,1.0,3.0,0.0,-4.0,-1.0,-2.0,2.0,-1.0,0.0,0.0,0.0,0.0,0.0,0.0,0.0,0.02832,-0.55322,0.82031,-2.0,-5.0,-7.0,-7.0,-5.0,-2.0,0.0,-2.0,0.75,0.6875,-3.375,0.91602,-0.28613,0.07184,-0.27179,0.0,0.0,0.0,-2.0,-1.0,-4.0,-6.0,-5.0,-2.0,-3.0,-3.0,0.0,0.0,0.0,0.0,0.0,0.0,0.0
I,0.0,0.0,0.0,1.0,5.0,1.0,-1.0,0.0,-1.0,1.0,1.0,0.0,0.0,0.0,0.0,0.0,0.0,0.0,-0.06982,0.76611,0.66699,24.0,8.0,1.0,-4.0,-3.0,0.0,3.0,42.0,-1.875,-5.5,-2.25,-0.26483,-0.09027,-0.40082,-0.87244,-0.24268,0.86279,0.76514,-10.0,11.0,20.0,11.0,0.0,-12.0,2.0,-12.0,-37.125,50.6875,-86.625,-0.3432,-0.04291,-0.39795,-0.84979,0.0,0.0,0.0,-5.0,-8.0,-6.0,-1.0,-4.0,0.0,3.0,5.0,0.0,0.0,0.0,0.0,0.0,0.0,0.0
I,0.0,0.0,0.0,2.0,1.0,5.0,4.0,5.0,1.0,1.0,9.0,0.0,0.0,0.0,0.0,0.0,0.0,0.0,0.0,0.0,0.0,14.0,-12.0,-11.0,-7.0,-3.0,0.0,7.0,20.0,0.0,0.0,0.0,0.0,0.0,0.0,0.0,0.0,0.0,0.0,-10.0,-4.0,-11.0,2.0,5.0,-7.0,-7.0,-1.0,0.0,0.0,0.0,0.0,0.0,0.0,0.0,0.0,0.0,0.0,7.0,7.0,10.0,4.0,-3.0,5.0,3.0,5.0,0.0,0.0,0.0,0.0,0.0,0.0,0.0
I,0.0,0.0,0.0,2.0,4.0,-5.0,-5.0,-2.0,-2.0,-1.0,-1.0,0.0,0.0,0.0,0.0,0.0,0.0,0.0,-0.11475,0.76709,0.62842,0.0,-2.0,-12.0,-2.0,2.0,1.0,-1.0,-4.0,-4.125,-13.5625,-1.5,-0.89941,-0.40796,-0.10944,-0.11298,0.0,0.0,0.0,-4.0,-4.0,-1.0,7.0,1.0,-1.0,-2.0,-5.0,0.0,0.0,0.0,0.0,0.0,0.0,0.0,-0.34326,0.72949,0.55322,-3.0,2.0,1.0,2.0,-2.0,-13.0,-13.0,-15.0,10.0625,49.0,-72.0,-0.88208,-0.414,-0.22467,0.01361
I,0.0,0.0,0.0,5.0,6.0,6.0,-3.0,0.0,2.0,1.0,17.0,0.0,0.0,0.0,0.0,0.0,0.0,0.0,-0.22363,0.75391,0.52197,8.0,6.0,-17.0,-11.0,-1.0,-1.0,-32.0,-32.0,-23.6875,-45.625,8.875,-0.27679,-0.0661,-0.4209,-0.86139,-0.08643,0.66895,0.91064,-10.0,-15.0,-13.0,-22.0,-34.0,-16.0,-3.0,6.0,-84.6875,-18.375,22.4375,-0.28278,-0.08917,-0.33588,-0.89404,0.02637,0.60107,0.68994,0.0,0.0,0.0,0.0,0.0,0.0,0.0,0.0,27.875,79.4375,-40.9375,-0.28143,-0.03064,-0.34595,-0.89459
I,0.00977,0.76709,0.66016,1.0,4.0,-3.0,-3.0,1.0,0.0,0.0,6.0,-0.625,0.375,-0.5625,-0.87659,-0.41113,-0.09766,-0.23041,-0.11475,0.86914,0.65771,-7.0,-2.0,5.0,1.0,3.0,2.0,5.0,7.0,8.6875,-4.9375,-11.3125,-0.87469,-0.4176,-0.10315,-0.22345,-0.12744,0.70215,0.73438,-1.0,3.0,8.0,1.0,3.0,14.0,9.0,4.0,-14.8125,78.9375,-65.5625,-0.8913,-0.37,-0.18799,-0.18304,-0.3501,0.68066,0.54688,2.0,5.0,-1.0,3.0,-3.0,-2.0,-6.0,2.0,9.8125,100.1875,1.25,-0.85339,-0.35016,-0.34259,-0.17847
I,0.03369,0.71338,0.7041,-1.0,1.0,-3.0,0.0,1.0,0.0,-5.0,-4.0,-0.0625,0.0625,-0.8125,-0.89893,-0.37848,-0.06543,-0.211,-0.01367,0.7583,0.65869,0.0,1.0,8.0,1.0,8.0,2.0,1.0,-3.0,7.4375,-12.9375,-21.875,-0.90051,-0.38184,-0.06775,-0.19702,-0.1001,0.83057,0.73975,15.0,10.0,4.0,-4.0,-11.0,-13.0,-9.0,6.0,1.375,-2.4375,-86.125,-0.9104,-0.3938,-0.08228,-0.09686,-0.24707,0.60303,0.71338,3.0,-2.0,-12.0,-11.0,-11.0,-4.0,-7.0,8.0,11.5,96.375,-62.75,-0.90961,-0.35992,-0.2077,0.00269
I,0.09277,0.74707,0.68506,-3.0,-12.0,-8.0,-3.0,-4.0,-4.0,-2.0,0.0,0.1875,-3.3125,-15.1875,-0.35236,-0.20081,-0.34064,-0.84827,-0.03711,0.81348,0.67285,-4.0,-4.0,-15.0,-10.0,-4.0,-3.0,-3.0,-9.0,13.0,16.8125,-67.5,-0.41339,-0.17487,-0.37421,-0.81158,-0.30762,0.70947,0.64258,0.0,7.0,6.0,4.0,4.0,0.0,-7.0,-5.0,11.0,78.375,-87.5,-0.49182,-0.04932,-0.44135,-0.74896,-0.58838,0.59277,0.44238,0.0,7.0,3.0,0.0,6.0,4.0,5.0,3.0,-5.8125,89.25,-13.1875,-0.48047,0.0943,-0.51367,-0.70465
I,0.12402,-0.55322,0.81104,-1.0,0.0,-1.0,-1.0,1.0,4.0,3.0,-1.0,-0.9375,0.3125,-0.875,0.18799,-0.12286,0.27808,-0.93396,0.0,0.0,0.0,-2.0,-3.0,-7.0,-11.0,-11.0,-8.0,-3.0,-2.0,0.0,0.0,0.0,0.0,0.0,0.0,0.0,0.11865,-0.5625,0.81396,-2.0,-4.0,-2.0,-4.0,-6.0,-2.0,-1.0,-1.0,0.9375,0.4375,-2.0,0.18439,-0.11774,0.27631,-0.93585,0.12354,-0.51807,0.81689,-1.0,0.0,1.0,5.0,1.0,4.0,2.0,0.0,-1.8125,-3.875,-6.875,0.17883,-0.12439,0.27606,-0.93616
Julia,-0.00439,0.54297,0.84131,3.0,8.0,4.0,-3.0,2.0,2.0,-1.0,-7.0,-0.5,-0.25,-0.5,-0.53961,-0.15564,-0.2392,-0.79211,0.0,0.0,0.0,6.0,-14.0,-1.0,-2.0,-3.0,6.0,-8.0,-5.0,0.0,0.0,0.0,0.0,0.0,0.0,0.0,-0.81006,0.52344,0.13428,37.0,-12.0,-11.0,-6.0,20.0,7.0,6.0,13.0,31.375,108.625,-51.875,-0.55719,0.1311,-0.66895,-0.47424,0.0,0.0,0.0,14.0,20.0,1.0,-3.0,-19.0,-2.0,-8.0,-25.0,0.0,0.0,0.0,0.0,0.0,0.0,0.0
Julia,-0.00781,-0.45898,0.88086,-6.0,-4.0,1.0,0.0,-4.0,-15.0,-6.0,-6.0,0.3125,-0.8125,0.0,-0.85278,0.20966,0.10931,-0.4657,-0.04883,-0.48926,0.89063,0.0,0.0,0.0,0.0,0.0,0.0,0.0,0.0,-39.5625,9.9375,23.6875,-0.84021,0.24048,0.11523,-0.47223,-0.05566,-0.60791,0.75488,-2.0,1.0,0.0,-3.0,-3.0,-4.0,-3.0,-1.0,-32.3125,15.4375,-30.0625,-0.82666,0.32117,0.12848,-0.44391,-0.04297,-0.7207,0.74512,1.0,2.0,6.0,12.0,11.0,4.0,-1.0,-1.0,0.375,-1.1875,-0.875,-0.83197,0.33716,0.14813,-0.41504
Julia,-0.01465,0.49951,0.85693,7.0,15.0,6.0,5.0,-1.0,1.0,-4.0,-3.0,-0.25,4.625,-5.5625,-0.96472,-0.26221,-0.00433,0.02539,-0.11816,0.64746,0.8418,4.0,-14.0,-37.0,-35.0,-107.0,-89.0,-13.0,-6.0,24.5,16.5625,-47.0625,-0.95093,-0.30115,-0.04004,0.05896,-0.33936,0.62061,0.76025,2.0,-20.0,-7.0,12.0,26.0,21.0,7.0,10.0,31.5625,55.375,-52.1875,-0.91943,-0.34143,-0.12946,0.14618,-0.39209,0.4248,0.73926,-2.0,-22.0,-28.0,-3.0,3.0,-6.0,-8.0,0.0,0.0,-0.8125,-9.375,-0.91016,-0.33472,-0.18695,0.15704
Julia,-0.0166,-0.40576,0.91211,-5.0,-5.0,-5.0,1.0,1.0,3.0,4.0,-6.0,-0.3125,-0.3125,-0.375,0.75867,-0.16864,-0.12292,0.61707,-0.02002,-0.41113,0.91455,-1.0,4.0,9.0,5.0,4.0,9.0,3.0,-6.0,1.75,1.0625,0.6875,0.7583,-0.16949,-0.12329,0.61719,-0.00537,-0.42578,0.92188,-19.0,-21.0,-30.0,-6.0,5.0,7.0,7.0,-20.0,-31.375,-1.0625,20.4375,0.74933,-0.18549,-0.13165,0.62183,0.0,0.0,0.0,0.0,-4.0,-3.0,0.0,-4.0,-9.0,1.0,-11.0,0.0,0.0,0.0,0.0,0.0,0.0,0.0
Julia,-0.03223,-0.57617,0.79541,-1.0,1.0,2.0,3.0,2.0,2.0,1.0,2.0,-1.375,0.1875,0.625,0.94562,-0.30328,0.05292,-0.10468,-0.0293,-0.59668,0.79004,-2.0,-1.0,2.0,2.0,4.0,2.0,1.0,-17.0,-4.0,0.875,-2.0625,0.94305,-0.30963,0.0556,-0.10797,-0.03467,-0.58252,0.77881,0.0,-1.0,-2.0,-3.0,-4.0,-1.0,-3.0,-6.0,3.5625,2.5625,-3.125,0.94183,-0.31,0.05652,-0.11652,-0.02295,-0.5957,0.80371,-1.0,0.0,1.0,3.0,8.0,6.0,1.0,3.0,-0.9375,1.25,-4.25,0.94373,-0.30231,0.05261,-0.12305
Julia,-0.03467,-0.4458,0.89307,0.0,1.0,2.0,-4.0,-2.0,-1.0,4.0,0.0,0.625,-0.375,-0.1875,0.32825,-0.09662,-0.20654,0.91663,-0.04102,-0.4375,0.89941,-1.0,1.0,-4.0,-3.0,2.0,3.0,5.0,-3.0,0.0625,-0.4375,-0.875,0.32904,-0.09613,-0.20667,0.91638,0.0,0.0,0.0,0.0,-2.0,-4.0,-6.0,-5.0,-2.0,0.0,4.0,0.0,0.0,0.0,0.0,0.0,0.0,0.0,0.00342,-0.58838,0.81006,-3.0,-3.0,1.0,6.0,10.0,10.0,2.0,-2.0,-14.625,7.0625,-19.75,0.32068,-0.11121,-0.28339,0.89691
Julia,-0.03711,0.55811,0.83154,0.0,0.0,0.0,0.0,0.0,0.0,0.0,0.0,0.4375,-0.125,-1.0,-0.94775,-0.28711,-0.05713,-0.12708,-0.2998,0.79248,0.82129,-15.0,-2.0,23.0,24.0,19.0,7.0,-6.0,-38.0,54.4375,74.75,-74.5,-0.93195,-0.32526,-0.13495,-0.08728,-0.8374,0.69482,0.46094,-50.0,-85.0,-63.0,-35.0,4.0,26.0,-8.0,-35.0,74.75,128.25,-127.8125,-0.80548,-0.38971,-0.44214,0.06238,-0.70459,0.32959,-0.07178,33.0,51.0,19.0,14.0,39.0,24.0,38.0,103.0,14.6875,83.25,-27.8125,-0.61938,-0.38824,-0.67078,0.12531
Julia,-0.04199,-0.36035,0.93652,0.0,6.0,9.0,-3.0,3.0,15.0,19.0,6.0,0.125,-1.25,0.625,0.64301,-0.13751,-0.12274,0.74329,-0.04102,-0.35254,0.9292,1.0,-2.0,-2.0,-2.0,-5.0,-2.0,-2.0,-1.0,-0.375,-1.625,0.5,0.6416,-0.13629,-0.12299,0.74469,0.0,0.0,0.0,1.0,1.0,-1.0,-4.0,-5.0,-1.0,0.0,6.0,0.0,0.0,0.0,0.0,0.0,0.0,0.0,-0.01855,-0.55078,0.84082,1.0,1.0,-3.0,-1.0,-1.0,1.0,0.0,5.0,0.3125,2.3125,-3.875,0.63605,-0.19891,-0.20618,0.71649
Julia,-0.04395,-0.56299,0.80664,-2.0,-1.0,-3.0,-2.0,0.0,2.0,1.0,-6.0,-0.125,1.375,-0.1875,0.93286,-0.28363,0.09058,-0.20276,-0.04395,-0.57324,0.80371,1.0,-2.0,-3.0,-5.0,-7.0,-4.0,5.0,3.0,-2.625,-0.5,-2.375,0.92932,-0.28967,0.09149,-0.20978,-0.04346,-0.56885,0.80566,1.0,2.0,2.0,3.0,3.0,6.0,4.0,10.0,0.8125,0.9375,-5.3125,0.92773,-0.2887,0.09003,-0.21881,-0.02539,-0.58057,0.80029,-1.0,1.0,2.0,3.0,3.0,-1.0,-3.0,5.0,-0.9375,0.4375,-3.125,0.92358,-0.29315,0.08624,-0.23138
Julia,-0.05908,0.54346,0.84668,-8.0,-6.0,5.0,8.0,4.0,0.0,-6.0,-3.0,0.125,0.3125,-1.875,-0.94354,-0.27069,-0.07922,-0.17419,0.0,0.0,0.0,-7.0,-7.0,0.0,-11.0,-37.0,-25.0,-12.0,-23.0,0.0,0.0,0.0,0.0,0.0,0.0,0.0,-0.62354,0.71631,0.62842,-48.0,-21.0,-2.0,1.0,4.0,5.0,-4.0,-10.0,66.9375,159.6875,-114.3125,-0.86841,-0.35114,-0.34961,-0.0199,-0.78467,0.3916,0.03564,-8.0,-24.0,-6.0,-8.0,-13.0,-40.0,-4.0,-42.0,37.3125,94.125,-56.375,-0.66858,-0.35864,-0.64594,0.08563
Julia,-0.06104,0.63184,0.79102,0.0,-2.0,-3.0,-1.0,2.0,1.0,1.0,4.0,1.375,-0.125,-0.9375,-0.28467,-0.06769,-0.32587,-0.89905,-0.08252,0.63867,0.77979,6.0,-3.0,2.0,1.0,3.0,3.0,2.0,3.0,4.8125,1.5625,-5.6875,-0.29272,-0.06573,-0.33148,-0.89453,-0.47754,0.7793,0.77881,-51.0,-14.0,-12.0,-4.0,-9.0,-19.0,-23.0,-49.0,61.125,115.8125,-108.5625,-0.3656,0.05048,-0.41522,-0.83154,-0.70898,0.43408,0.05469,48.0,31.0,9.0,4.0,-4.0,-8.0,6.0,22.0,25.6875,109.1875,-44.0,-0.35468,0.39923,-0.60919,-0.5863
Julia,-0.0625,-0.56348,0.81396,-2.0,-3.0,-5.0,-2.0,-5.0,-7.0,-5.0,5.0,-0.6875,0.9375,-0.25,0.79797,-0.23199,0.18756,-0.52368,-0.05957,-0.56348,0.81299,0.0,0.0,0.0,0.0,0.0,0.0,0.0,0.0,-0.4375,4.75,-1.5625,0.79602,-0.23102,0.19153,-0.5257,-0.06494,-0.56445,0.81104,1.0,-1.0,0.0,0.0,-2.0,-2.0,-3.0,-3.0,3.25,2.4375,-4.5,0.78851,-0.22522,0.19659,-0.53748,-0.06006,-0.55029,0.80859,0.0,0.0,2.0,-3.0,-1.0,-1.0,-2.0,6.0,0.75,2.5625,0.4375,0.78333,-0.22437,0.19464,-0.54602
Julia,-0.0625,0.55371,0.81836,21.0,6.0,-15.0,-4.0,-10.0,-3.0,-2.0,2.0,3.875,5.375,-0.75,-0.95483,-0.28687,-0.05219,-0.05817,-0.62793,0.68896,0.64355,-34.0,2.0,23.0,4.0,-13.0,-4.0,-20.0,-67.0,67.0625,133.6875,-102.5,-0.89288,-0.36774,-0.255,0.05042,-0.82227,0.40674,0.04395,0.0,2.0,-13.0,-7.0,-17.0,-12.0,27.0,51.0,30.5,116.0,-57.375,-0.68048,-0.40729,-0.58826,0.15826,-0.88623,0.33789,-0.22852,50.0,55.0,5.0,0.0,10.0,24.0,14.0,43.0,0.75,14.3125,-3.0625,-0.58905,-0.42926,-0.66986,0.14191
Julia,-0.06982,-0.63574,0.76025,-7.0,-6.0,-3.0,0.0,-5.0,-9.0,-8.0,5.0,1.1875,-1.6875,-0.375,0.90674,-0.31604,0.13062,-0.2467,-0.09961,-0.61719,0.76758,-4.0,-2.0,0.0,1.0,4.0,4.0,-4.0,2.0,0.125,-0.6875,0.0625,0.90784,-0.31494,0.12799,-0.24554,-0.07227,-0.63721,0.77246,1.0,3.0,11.0,18.0,13.0,7.0,1.0,-2.0,1.3125,-1.3125,-1.3125,0.90784,-0.31067,0.12781,-0.25085,-0.06396,-0.62158,0.76709,2.0,2.0,5.0,9.0,4.0,1.0,-3.0,10.0,-1.5,-1.5625,0.125,0.90869,-0.31146,0.12457,-0.24835
Julia,-0.07422,-0.375,0.91846,0.0,2.0,1.0,-1.0,2.0,2.0,-4.0,-4.0,0.25,-1.0625,-1.3125,0.68298,-0.16241,-0.11334,0.703,-0.07031,-0.37744,0.92041,2.0,9.0,4.0,2.0,5.0,6.0,6.0,3.0,0.0625,-0.625,0.5,0.68256,-0.16211,-0.11371,0.70343,-0.05078,-0.36719,0.89014,6.0,-11.0,-15.0,12.0,5.0,2.0,2.0,5.0,-30.4375,-13.75,7.0625,0.67682,-0.16284,-0.12994,0.70599,-0.07129,-0.57471,0.80908,0.0,0.0,0.0,0.0,0.0,0.0,0.0,0.0,-24.875,10.375,-31.5625,0.65558,-0.23157,-0.19312,0.69226
Julia,-0.07422,0.75635,0.64795,0.0,3.0,12.0,3.0,3.0,3.0,1.0,4.0,-0.3125,-1.0625,2.125,-0.86774,-0.38409,-0.16162,-0.27112,-0.3252,0.84326,0.64258,1.0,-3.0,8.0,5.0,-10.0,-9.0,-2.0,4.0,18.125,65.3125,-68.9375,-0.86298,-0.37982,-0.22925,-0.24188,-0.8125,0.74561,0.26074,-1.0,7.0,1.0,-2.0,-19.0,-20.0,-1.0,-10.0,82.75,97.25,-93.0,-0.75421,-0.33936,-0.55933,-0.0575,-0.85254,0.33691,-0.21094,9.0,10.0,7.0,0.0,28.0,30.0,8.0,18.0,5.625,34.9375,-25.3125,-0.61664,-0.31842,-0.71948,0.0282
Julia,-0.07715,0.58057,0.82227,-1.0,-8.0,-10.0,-6.0,-6.0,3.0,-1.0,-1.0,2.4375,1.375,-2.4375,-0.34778,-0.07495,-0.29492,-0.8869,-0.33984,0.73438,0.95654,28.0,-17.0,-12.0,-9.0,10.0,29.0,12.0,3.0,52.6875,72.625,-78.0,-0.36981,-0.03894,-0.34039,-0.86371,-0.77295,0.6665,0.49902,-16.0,-21.0,-4.0,-1.0,-12.0,-5.0,-8.0,-4.0,57.375,170.8125,-103.1875,-0.39966,0.211,-0.51538,-0.72815,-0.63965,0.3623,-0.01025,12.0,23.0,6.0,4.0,5.0,2.0,12.0,26.0,17.125,98.875,-38.25,-0.36707,0.40765,-0.6189,-0.56226
Julia,-0.08008,-0.56836,0.80566,0.0,-2.0,-2.0,-2.0,-3.0,-2.0,-1.0,-1.0,-2.875,1.0,-5.625,0.57629,-0.14978,0.27112,-0.75629,-0.09033,-0.56592,0.80664,-3.0,-5.0,-8.0,-19.0,-19.0,-18.0,-4.0,-5.0,-5.375,0.0,-7.8125,0.56573,-0.1535,0.27545,-0.7619,-0.06689,-0.57959,0.77979,0.0,3.0,2.0,4.0,4.0,4.0,3.0,3.0,0.125,-2.0625,-6.6875,0.5528,-0.15674,0.27283,-0.77161,-0.06055,-0.59473,0.79883,0.0,-2.0,-4.0,-1.0,3.0,0.0,-4.0,3.0,-3.8125,-3.75,-2.875,0.55597,-0.15924,0.26703,-0.77087
Julia,-0.08008,0.54883,0.84473,8.0,0.0,2.0,1.0,-1.0,-4.0,0.0,1.0,-0.4375,0.3125,0.625,-0.95258,-0.27551,-0.07104,-0.10809,-0.13477,0.63184,0.88379,33.0,34.0,27.0,32.0,89.0,25.0,4.0,3.0,19.625,5.6875,-32.25,-0.9516,-0.28137,-0.08044,-0.09424,-0.76416,0.58447,0.44092,13.0,-45.0,-38.0,-20.0,-3.0,1.0,-5.0,15.0,60.375,146.0,-93.75,-0.815,-0.39166,-0.41864,0.08521,-0.7627,0.34961,-0.11621,-9.0,11.0,2.0,3.0,-18.0,-28.0,6.0,-64.0,8.25,60.5625,-18.75,-0.62964,-0.41315,-0.64734,0.11786
Julia,-0.08105,0.59473,0.81201,-1.0,-1.0,0.0,0.0,1.0,2.0,0.0,3.0,-1.4375,0.5,-1.0625,-0.3302,-0.0697,-0.3042,-0.89087,-0.08057,0.57031,0.85205,9.0,13.0,14.0,14.0,17.0,-21.0,2.0,-10.0,0.25,14.75,-9.75,-0.33203,-0.06195,-0.30426,-0.89075,-0.28662,0.63916,0.75244,16.0,23.0,-17.0,-10.0,-32.0,-19.0,2.0,10.0,22.8125,44.8125,-51.0,-0.37933,0.00122,-0.36798,-0.849,-0.32031,0.59521,0.53125,-32.0,7.0,28.0,6.0,3.0,4.0,8.0,22.0,1.5,15.25,-12.9375,-0.39777,0.07245,-0.41895,-0.81305
Julia,-0.08691,-0.42041,0.85156,0.0,0.0,0.0,0.0,0.0,0.0,0.0,0.0,-6.8125,-6.75,-0.3125,0.10431,0.02814,0.23633,-0.96564,0.0,0.0,0.0,-2.0,-4.0,-3.0,1.0,-1.0,-4.0,-3.0,-3.0,0.0,0.0,0.0,0.0,0.0,0.0,0.0,-0.06055,-0.63525,0.75098,-1.0,-2.0,-5.0,-9.0,-5.0,-5.0,-2.0,-1.0,4.1875,2.0,-14.6875,0.1051,-0.00885,0.33472,-0.9364,0.0,0.0,0.0,0.0,-1.0,0.0,0.0,0.0,2.0,0.0,-1.0,0.0,0.0,0.0,0.0,0.0,0.0,0.0
Julia,-0.0918,0.5957,0.80322,-1.0,-1.0,-5.0,-1.0,-3.0,-14.0,-2.0,-4.0,0.6875,-0.9375,0.5625,-0.33228,-0.065,-0.30627,-0.88977,0.0,0.0,0.0,-12.0,-33.0,-34.0,-26.0,-38.0,-11.0,-3.0,2.0,0.0,0.0,0.0,0.0,0.0,0.0,0.0,-0.75293,0.69238,0.54883,36.0,24.0,29.0,14.0,-20.0,-37.0,4.0,58.0,67.6875,174.9375,-105.5,-0.3927,0.20715,-0.51666,-0.73212,0.0,0.0,0.0,26.0,20.0,5.0,-6.0,7.0,-5.0,-11.0,-10.0,0.0,0.0,0.0,0.0,0.0,0.0,0.0
Julia,-0.09521,-0.56738,0.7998,-1.0,-2.0,3.0,7.0,6.0,1.0,-7.0,-9.0,-1.125,1.75,-1.3125,0.89349,-0.2666,0.1463,-0.33044,-0.07813,-0.56934,0.78516,-2.0,2.0,0.0,0.0,-4.0,-2.0,-3.0,-15.0,-1.25,0.625,-5.375,0.88898,-0.26984,0.14746,-0.33929,-0.03955,-0.57178,0.79639,0.0,-1.0,-5.0,-9.0,-5.0,-3.0,-3.0,17.0,5.5,3.4375,-6.4375,0.88214,-0.26947,0.14508,-0.35791,0.0,0.0,0.0,-1.0,-1.0,0.0,2.0,1.0,-5.0,-2.0,11.0,0.0,0.0,0.0,0.0,0.0,0.0,0.0
Julia,-0.09961,0.73779,0.68506,-12.0,6.0,11.0,5.0,-1.0,1.0,-3.0,0.0,-0.5,-0.25,1.1875,-0.83771,-0.34155,-0.2066,-0.3728,0.0,0.0,0.0,-47.0,-72.0,-32.0,-6.0,21.0,8.0,1.0,-12.0,0.0,0.0,0.0,0.0,0.0,0.0,0.0,0.0,0.0,0.0,0.0,0.0,0.0,0.0,0.0,0.0,0.0,0.0,0.0,0.0,0.0,0.0,0.0,0.0,0.0,-0.72705,0.34717,-0.18066,54.0,28.0,-12.0,-1.0,11.0,18.0,29.0,96.0,-3.8125,50.375,-20.5,-0.60681,-0.18439,-0.76904,-0.07996
Julia,-0.10059,0.58887,0.80908,-2.0,4.0,-7.0,-7.0,-4.0,-2.0,-1.0,-1.0,0.0,0.125,-1.0625,-0.29437,-0.04333,-0.30835,-0.90356,-0.28027,0.78711,0.92334,30.0,19.0,43.0,27.0,13.0,6.0,20.0,71.0,38.5,32.625,-43.0625,-0.3078,-0.0282,-0.3374,-0.88922,-0.77295,0.7085,0.53516,23.0,56.0,14.0,2.0,7.0,13.0,-13.0,16.0,77.6875,166.375,-113.75,-0.37933,0.21552,-0.51434,-0.7384,0.0,0.0,0.0,20.0,4.0,5.0,2.0,7.0,5.0,2.0,66.0,0.0,0.0,0.0,0.0,0.0,0.0,0.0
Julia,-0.10498,-0.41406,0.90186,5.0,-4.0,-4.0,-2.0,-1.0,-12.0,-3.0,5.0,-1.25,0.875,0.8125,0.73352,-0.19824,-0.09796,0.64264,-0.09766,-0.40088,0.87109,1.0,-7.0,-3.0,-4.0,-1.0,-1.0,-2.0,-5.0,-3.0625,-1.25,-3.375,0.7337,-0.19794,-0.099,0.6424,-0.12646,-0.55469,0.84717,-2.0,6.0,-1.0,-7.0,-5.0,2.0,1.0,0.0,-56.625,15.0,1.5,0.70483,-0.24896,-0.15173,0.64667,-0.08936,-0.62842,0.76709,-3.0,-1.0,-2.0,0.0,-1.0,0.0,-2.0,-8.0,0.1875,8.125,-20.625,0.73138,-0.28644,-0.16821,0.59552
Julia,-0.10791,0.604,0.79297,7.0,6.0,-4.0,-6.0,-7.0,2.0,-5.0,-8.0,4.125,3.0,-4.0,-0.28979,-0.03546,-0.32843,-0.89832,-0.24316,0.69482,0.75488,11.0,3.0,-6.0,-4.0,-7.0,-1.0,-10.0,-15.0,3.75,19.1875,-24.3125,-0.30365,-0.00531,-0.34991,-0.88623,0.0,0.0,0.0,28.0,27.0,-14.0,-9.0,6.0,10.0,8.0,34.0,0.0,0.0,0.0,0.0,0.0,0.0,0.0,-0.42676,0.60254,0.6416,-14.0,2.0,17.0,2.0,-5.0,-4.0,13.0,18.0,24.8125,5.375,-9.125,-0.36255,0.11047,-0.39398,-0.8374
Julia,-0.12451,0.56348,0.82031,-6.0,-2.0,1.0,1.0,4.0,5.0,1.0,-7.0,2.75,-1.6875,-1.5625,-0.95038,-0.29895,-0.04083,0.07611,-0.24561,0.57617,0.81299,-19.0,-43.0,-25.0,2.0,90.0,52.0,3.0,-22.0,34.8125,14.375,-46.3125,-0.94263,-0.31036,-0.06476,0.10468,-0.4502,0.64014,0.68115,-27.0,-45.0,7.0,7.0,3.0,-3.0,-5.0,-3.0,6.5625,55.5,-54.625,-0.8996,-0.35577,-0.17108,0.18695,0.0,0.0,0.0,-19.0,-33.0,-13.0,-3.0,-7.0,-4.0,-2.0,-14.0,0.0,0.0,0.0,0.0,0.0,0.0,0.0
Julia,-0.13428,-0.5918,0.80322,-2.0,0.0,-3.0,0.0,-1.0,0.0,-5.0,-17.0,-0.25,-0.1875,-1.0625,-0.01831,0.08197,0.30865,-0.94751,-0.14551,-0.59326,0.79492,0.0,-2.0,-2.0,3.0,6.0,6.0,-6.0,-1.0,-3.0625,-0.75,-5.25,-0.02271,0.07867,0.31293,-0.94629,-0.11523,-0.61328,0.78809,-1.0,0.0,1.0,-3.0,-4.0,-5.0,1.0,4.0,-0.75,0.5625,-8.125,-0.03735,0.07916,0.31531,-0.94495,-0.11475,-0.625,0.79346,4.0,1.0,-1.0,-1.0,-1.0,2.0,5.0,26.0,1.125,-2.3125,-0.6875,-0.04193,0.0733,0.31439,-0.94556
Julia,-0.13525,-0.43408,0.88916,-6.0,1.0,-2.0,0.0,-1.0,1.0,-2.0,-1.0,-0.9375,0.5625,-0.9375,0.68817,-0.2074,-0.11047,0.6864,-0.10449,-0.42822,0.896,0.0,-6.0,-5.0,-3.0,1.0,1.0,0.0,-1.0,-5.875,-9.4375,1.75,0.68726,-0.2041,-0.11737,0.68719,-0.12354,-0.54395,0.81445,0.0,-2.0,-3.0,1.0,1.0,-3.0,-7.0,-2.0,-21.9375,14.5625,5.5625,0.67041,-0.24738,-0.146,0.68408,-0.16309,-0.57275,0.77979,-2.0,-2.0,-2.0,-2.0,-6.0,-9.0,-5.0,-2.0,-9.0,6.6875,-30.0625,0.68811,-0.28363,-0.16107,0.64807
Julia,-0.14941,0.72656,0.68799,-5.0,-2.0,-5.0,-7.0,-3.0,-4.0,-4.0,-7.0,-1.625,-4.6875,4.75,-0.59918,-0.20209,-0.33801,-0.69708,-0.43701,0.87451,0.6377,3.0,-3.0,-1.0,-2.0,5.0,7.0,0.0,-3.0,40.125,88.25,-87.8125,-0.60681,-0.13953,-0.43726,-0.64899,-0.80908,0.47217,0.11475,9.0,5.0,-2.0,0.0,-5.0,-5.0,1.0,-13.0,40.4375,84.125,-69.8125,-0.58929,0.06842,-0.69531,-0.40588,-0.90771,0.34229,-0.30615,17.0,17.0,-5.0,-8.0,-5.0,-1.0,-1.0,-27.0,-11.25,29.4375,2.5625,-0.51794,0.17249,-0.77032,-0.32965
Julia,-0.16992,0.79883,0.61768,-19.0,-11.0,3.0,-1.0,1.0,7.0,1.0,-28.0,-4.75,-5.1875,4.5625,-0.51068,-0.31641,0.30579,0.73865,-0.60889,0.89844,0.61572,-33.0,-13.0,-3.0,2.0,-9.0,-18.0,-5.0,-11.0,27.375,163.8125,-133.3125,-0.48376,-0.43323,0.17676,0.73962,-0.67383,0.36475,0.11768,-22.0,-26.0,-4.0,-5.0,-3.0,13.0,1.0,1.0,35.9375,113.25,-72.8125,-0.25446,-0.72424,-0.00421,0.64087,-0.9165,0.3457,-0.25488,-7.0,8.0,5.0,5.0,2.0,-2.0,-41.0,-71.0,-11.3125,25.1875,8.8125,-0.23254,-0.77942,-0.05969,0.57874
Julia,-0.17432,0.79883,0.59082,-18.0,-4.0,-3.0,-6.0,-4.0,-4.0,-8.0,-46.0,-2.5625,-0.875,1.0625,-0.5589,-0.3537,0.28925,0.69202,-0.01953,0.8042,0.73682,-6.0,18.0,4.0,-6.0,-24.0,-25.0,-13.0,-20.0,-19.625,-25.3125,6.125,-0.57208,-0.31085,0.29865,0.69775,-0.75684,0.70313,0.48535,51.0,51.0,12.0,4.0,17.0,28.0,6.0,2.0,58.4375,172.0,-152.5,-0.38733,-0.55487,0.11652,0.72699,-0.76172,0.32422,-0.12646,21.0,5.0,-9.0,-13.0,-12.0,-7.0,2.0,22.0,10.75,61.3125,-0.9375,-0.24622,-0.77698,-0.02661,0.5788
Julia,-0.17725,-0.54492,0.7959,-1.0,1.0,1.0,4.0,5.0,-2.0,-1.0,-1.0,-1.0625,2.0,0.25,0.95093,-0.29541,0.08759,0.02777,0.0,0.0,0.0,-1.0,-2.0,-1.0,1.0,-4.0,2.0,0.0,1.0,0.0,0.0,0.0,0.0,0.0,0.0,0.0,-0.16602,-0.55957,0.80469,-1.0,2.0,0.0,9.0,8.0,2.0,-1.0,-4.0,5.0625,-4.875,-4.25,0.95227,-0.29211,0.0871,0.01202,-0.15186,-0.5498,0.82471,-3.0,-3.0,-3.0,-4.0,-6.0,-6.0,-1.0,0.0,0.3125,2.5,-3.9375,0.95416,-0.2876,0.08234,0.00677
Julia,-0.18262,0.81934,0.61182,-2.0,-8.0,5.0,0.0,-1.0,-1.0,-5.0,-2.0,1.25,-4.9375,-3.0625,-0.56348,-0.34222,0.28802,0.69458,-0.44482,0.72412,0.57861,-40.0,-44.0,-2.0,5.0,0.0,7.0,3.0,-33.0,8.5625,75.3125,-72.125,-0.49878,-0.43628,0.19604,0.72278,0.0,0.0,0.0,-2.0,-1.0,9.0,7.0,-1.0,-16.0,3.0,34.0,0.0,0.0,0.0,0.0,0.0,0.0,0.0,-0.84424,0.3877,-0.10889,7.0,6.0,-3.0,-2.0,5.0,3.0,-3.0,-50.0,10.0,61.1875,-17.0625,-0.31104,-0.74219,-0.0741,0.58899
Julia,-0.19238,0.80908,0.61963,30.0,41.0,9.0,3.0,8.0,11.0,3.0,18.0,-3.875,-1.75,-9.8125,-0.5318,-0.33398,0.29358,0.7207,0.0,0.0,0.0,-40.0,-76.0,-55.0,-30.0,-10.0,-9.0,-39.0,-86.0,0.0,0.0,0.0,0.0,0.0,0.0,0.0,-0.70605,0.50146,0.19189,70.0,21.0,4.0,-5.0,5.0,-2.0,14.0,-7.0,35.0,141.25,-99.4375,-0.30676,-0.70026,0.01221,0.64447,0.0,0.0,0.0,-14.0,-23.0,-17.0,-6.0,-8.0,-14.0,-1.0,-18.0,0.0,0.0,0.0,0.0,0.0,0.0,0.0
Julia,-0.23242,0.79688,0.66211,-3.0,10.0,18.0,10.0,6.0,2.0,-5.0,-13.0,-2.625,-3.0625,3.375,0.18622,0.18274,-0.37494,-0.88959,-0.63379,0.74902,0.49805,-52.0,-64.0,-18.0,-17.0,-36.0,-11.0,-11.0,-35.0,59.875,116.1875,-107.25,0.08246,0.41772,-0.37866,-0.82184,-0.75635,0.36865,-0.10889,-45.0,-82.0,-30.0,-15.0,-29.0,-9.0,3.0,58.0,9.9375,51.5625,-50.1875,-0.02808,0.69037,-0.32379,-0.64636,-0.9082,0.35449,-0.30273,40.0,15.0,0.0,-1.0,0.0,7.0,-6.0,17.0,3.1875,11.625,11.625,-0.01672,0.73651,-0.30914,-0.60144
Julia,-0.23975,0.85889,0.48633,7.0,7.0,1.0,-1.0,9.0,24.0,4.0,27.0,-1.9375,2.1875,0.5,-0.59625,-0.43768,0.25897,0.62115,-0.56543,0.93213,0.52393,47.0,88.0,25.0,7.0,2.0,6.0,1.0,2.0,6.125,62.5,-102.375,-0.55994,-0.47675,0.19781,0.64813,-0.77002,0.65625,0.20654,1.0,16.0,13.0,7.0,3.0,0.0,8.0,-69.0,46.3125,130.9375,-78.25,-0.40271,-0.6701,0.01947,0.62323,0.0,0.0,0.0,9.0,-21.0,-35.0,-15.0,-11.0,-11.0,-6.0,3.0,0.0,0.0,0.0,0.0,0.0,0.0,0.0
Julia,-0.24658,0.73047,0.6543,-6.0,-6.0,-4.0,2.0,-1.0,-2.0,-3.0,-12.0,0.6875,0.0625,2.25,-0.52435,-0.33826,0.24786,0.74103,-0.24805,0.71533,0.62744,-3.0,-5.0,1.0,2.0,7.0,4.0,4.0,-1.0,-0.75,5.125,2.0625,-0.52435,-0.34918,0.24817,0.73584,-0.60693,0.96875,0.729,44.0,37.0,-8.0,-3.0,28.0,32.0,2.0,12.0,19.75,117.3125,-106.375,-0.52899,-0.38855,0.18903,0.73041,-0.66309,0.33398,0.04199,18.0,19.0,-3.0,3.0,18.0,9.0,7.0,10.0,22.4375,113.375,-37.9375,-0.27789,-0.74219,-0.0365,0.60876
Julia,0.0,0.0,0.0,-1.0,-1.0,-5.0,-5.0,-5.0,-4.0,-1.0,2.0,0.0,0.0,0.0,0.0,0.0,0.0,0.0,-0.0249,-0.51221,0.84912,-2.0,-5.0,-6.0,-4.0,-1.0,-4.0,-2.0,-5.0,-31.625,-1.1875,8.1875,0.46039,-0.11053,0.24365,-0.84644,-0.00244,-0.53564,0.79492,0.0,-2.0,-2.0,-1.0,-3.0,-4.0,-3.0,2.0,3.375,-1.0,-19.5625,0.43555,-0.13269,0.25317,-0.85358,0.0415,-0.53516,0.8208,1.0,-4.0,-6.0,-11.0,-15.0,-4.0,7.0,9.0,-0.75,2.375,-6.8125,0.41205,-0.14362,0.24768,-0.86499
Julia,0.0,0.0,0.0,-10.0,-23.0,-14.0,-11.0,-9.0,-6.0,0.0,-27.0,0.0,0.0,0.0,0.0,0.0,0.0,0.0,-0.65967,0.84668,0.57764,-65.0,-32.0,6.0,4.0,2.0,11.0,9.0,-8.0,40.0625,114.75,-115.8125,-0.4328,-0.47266,0.2146,0.73706,-0.75146,0.48291,0.16992,22.0,31.0,5.0,2.0,-8.0,7.0,24.0,75.0,25.75,128.375,-90.3125,-0.26666,-0.69415,0.05975,0.66595,0.0,0.0,0.0,32.0,12.0,0.0,0.0,9.0,19.0,21.0,69.0,0.0,0.0,0.0,0.0,0.0,0.0,0.0
Julia,0.0,0.0,0.0,-2.0,-5.0,0.0,-3.0,-3.0,-3.0,0.0,3.0,0.0,0.0,0.0,0.0,0.0,0.0,0.0,-0.10742,0.61621,0.79053,2.0,-1.0,-1.0,-2.0,-1.0,-8.0,-2.0,-2.0,-0.6875,0.6875,-1.25,-0.32666,-0.0567,-0.3244,-0.88599,-0.09375,0.61328,0.78076,-16.0,-32.0,-22.0,-13.0,-8.0,-2.0,2.0,1.0,18.5,5.375,-4.875,-0.32715,-0.0564,-0.32892,-0.88416,-0.46777,0.63184,0.60107,17.0,59.0,30.0,3.0,-2.0,-6.0,-20.0,-7.0,-3.375,53.5625,-46.75,-0.38745,0.05835,-0.43158,-0.81262
Julia,0.0,0.0,0.0,-5.0,1.0,2.0,-1.0,0.0,-3.0,-23.0,-2.0,0.0,0.0,0.0,0.0,0.0,0.0,0.0,-0.02881,-0.42969,0.89844,12.0,40.0,29.0,1.0,-8.0,-6.0,1.0,8.0,-9.0625,-3.5625,9.625,0.58887,-0.15051,-0.15521,0.77875,0.0,0.0,0.0,-13.0,-13.0,-8.0,1.0,3.0,-1.0,-2.0,-13.0,0.0,0.0,0.0,0.0,0.0,0.0,0.0,-0.08545,-0.61475,0.78711,-4.0,-8.0,-7.0,3.0,0.0,6.0,-2.0,-4.0,0.75,0.1875,-11.5,0.56409,-0.23053,-0.22589,0.76001
Julia,0.0,0.0,0.0,-7.0,2.0,12.0,5.0,8.0,9.0,1.0,0.0,0.0,0.0,0.0,0.0,0.0,0.0,0.0,0.0,0.0,0.0,42.0,19.0,-8.0,-6.0,3.0,6.0,23.0,61.0,0.0,0.0,0.0,0.0,0.0,0.0,0.0,-0.7998,0.59131,0.33545,27.0,3.0,-31.0,-21.0,-36.0,-30.0,-10.0,3.0,42.8125,125.8125,-89.125,-0.48267,0.19153,-0.58264,-0.62524,-0.82227,0.34033,-0.15576,-2.0,0.0,-12.0,-2.0,0.0,-5.0,-6.0,-33.0,12.0625,47.3125,-13.6875,-0.42584,0.36005,-0.69458,-0.45459
Julia,0.0,0.0,0.0,0.0,-2.0,-2.0,3.0,4.0,5.0,2.0,2.0,0.0,0.0,0.0,0.0,0.0,0.0,0.0,0.08936,-0.40918,0.94678,1.0,2.0,6.0,8.0,7.0,-1.0,-3.0,0.0,-16.4375,4.1875,7.25,-0.21179,0.01135,0.21545,-0.95325,0.0127,-0.5376,0.82959,-2.0,-2.0,-6.0,-8.0,-2.0,-4.0,-4.0,-1.0,-36.25,16.0,-27.1875,-0.20892,0.06171,0.29541,-0.93024,0.0,0.0,0.0,0.0,-2.0,-4.0,-6.0,-2.0,-4.0,-2.0,-1.0,0.0,0.0,0.0,0.0,0.0,0.0,0.0
Julia,0.0,0.0,0.0,1.0,3.0,5.0,3.0,7.0,7.0,1.0,4.0,0.0,0.0,0.0,0.0,0.0,0.0,0.0,-0.05371,-0.55664,0.80713,-2.0,-2.0,1.0,3.0,3.0,-7.0,-7.0,-3.0,-4.9375,5.4375,-1.375,0.9079,-0.27979,0.12195,-0.28729,-0.05957,-0.57471,0.79443,-1.0,-3.0,-3.0,-2.0,3.0,2.0,-3.0,-4.0,2.875,-0.625,-10.6875,0.9024,-0.27783,0.12286,-0.30554,0.0,0.0,0.0,0.0,0.0,-3.0,-4.0,-3.0,-4.0,-2.0,3.0,0.0,0.0,0.0,0.0,0.0,0.0,0.0
Julia,0.0,0.0,0.0,13.0,3.0,1.0,0.0,0.0,-2.0,-4.0,-1.0,0.0,0.0,0.0,0.0,0.0,0.0,0.0,-0.17188,0.66797,0.875,30.0,15.0,-13.0,-15.0,-1.0,5.0,9.0,28.0,8.3125,21.25,-24.0,-0.38892,-0.06012,-0.31769,-0.86273,-0.72607,0.71338,0.56494,-31.0,-33.0,-14.0,-18.0,-38.0,-32.0,-33.0,-82.0,61.75,176.3125,-90.0625,-0.4245,0.14093,-0.48877,-0.74908,-0.77783,0.34473,0.00732,9.0,-4.0,-5.0,0.0,17.0,6.0,3.0,-5.0,44.3125,98.875,-48.125,-0.3941,0.38745,-0.63849,-0.53564
Julia,0.0,0.0,0.0,17.0,14.0,5.0,6.0,5.0,-3.0,-4.0,1.0,0.0,0.0,0.0,0.0,0.0,0.0,0.0,0.0,0.0,0.0,10.0,4.0,0.0,1.0,0.0,-3.0,-2.0,-3.0,0.0,0.0,0.0,0.0,0.0,0.0,0.0,-0.17188,0.646,0.86035,-33.0,-54.0,-27.0,-28.0,-98.0,-105.0,-19.0,4.0,27.5,30.4375,-50.3125,-0.27295,-0.02246,-0.3205,-0.90686,0.0,0.0,0.0,14.0,0.0,-2.0,4.0,-6.0,-9.0,-5.0,7.0,0.0,0.0,0.0,0.0,0.0,0.0,0.0
Julia,0.0,0.0,0.0,21.0,18.0,1.0,0.0,-2.0,-4.0,0.0,10.0,0.0,0.0,0.0,0.0,0.0,0.0,0.0,0.0,0.0,0.0,28.0,26.0,13.0,-2.0,-42.0,-36.0,-17.0,34.0,0.0,0.0,0.0,0.0,0.0,0.0,0.0,0.0,0.0,0.0,21.0,35.0,-1.0,-2.0,-16.0,0.0,-8.0,-71.0,0.0,0.0,0.0,0.0,0.0,0.0,0.0,-0.61914,0.31494,-0.07031,12.0,2.0,-5.0,-4.0,-5.0,-5.0,-5.0,-10.0,14.6875,85.625,-25.6875,-0.35559,0.45892,-0.60541,-0.54449
Julia,0.0,0.0,0.0,36.0,21.0,3.0,13.0,41.0,29.0,20.0,50.0,0.0,0.0,0.0,0.0,0.0,0.0,0.0,-0.60547,0.70605,0.7207,34.0,5.0,10.0,3.0,3.0,16.0,46.0,70.0,66.375,143.5,-98.9375,-0.34955,0.08527,-0.41003,-0.83813,0.0,0.0,0.0,-52.0,-46.0,3.0,2.0,2.0,13.0,-2.0,-103.0,0.0,0.0,0.0,0.0,0.0,0.0,0.0,-0.80957,0.38281,-0.25928,-42.0,-3.0,-9.0,-8.0,-6.0,-10.0,-24.0,-69.0,2.0,-9.375,-6.375,-0.33478,0.45673,-0.62946,-0.53217
Julia,0.00928,-0.39014,0.9126,5.0,7.0,2.0,3.0,3.0,-1.0,3.0,7.0,1.25,-0.1875,-2.625,0.23926,-0.0434,-0.19861,0.9494,0.0,0.0,0.0,1.0,-1.0,-3.0,-1.0,-2.0,1.0,1.0,-5.0,0.0,0.0,0.0,0.0,0.0,0.0,0.0,-0.00537,-0.63965,0.8291,1.0,-1.0,-3.0,-2.0,-1.0,-3.0,1.0,0.0,3.4375,-1.25,-23.625,0.26343,-0.07837,-0.29584,0.91486,0.03662,-0.57861,0.81396,-1.0,1.0,1.0,1.0,5.0,6.0,1.0,1.0,-3.9375,-1.0,-4.4375,0.28052,-0.07397,-0.29401,0.91071
Julia,0.03564,-0.39014,0.9126,-2.0,0.0,0.0,-5.0,-4.0,3.0,-2.0,-2.0,0.25,0.5625,-0.25,0.72638,-0.13873,-0.14832,0.65656,0.03418,-0.38818,0.91357,0.0,-2.0,6.0,18.0,22.0,10.0,6.0,2.0,-1.0,-0.6875,-0.4375,0.72565,-0.13843,-0.14813,0.65747,-0.0376,-0.51758,0.85449,0.0,0.0,0.0,0.0,0.0,0.0,0.0,0.0,-58.5625,10.6875,1.1875,0.68933,-0.19965,-0.18878,0.67023,0.00684,-0.62305,0.7998,-1.0,1.0,2.0,5.0,11.0,6.0,0.0,-4.0,5.3125,4.6875,-9.3125,0.72699,-0.24445,-0.20667,0.60736
Julia,0.03662,-0.40576,0.91211,1.0,0.0,2.0,2.0,-2.0,4.0,0.0,0.0,-1.5625,-0.75,2.0,-0.50659,0.09174,0.18707,-0.83667,0.0,0.0,0.0,-3.0,-9.0,-4.0,3.0,-2.0,-2.0,-1.0,-4.0,0.0,0.0,0.0,0.0,0.0,0.0,0.0,0.0,0.0,0.0,-2.0,-4.0,-5.0,-4.0,-7.0,-9.0,-3.0,-5.0,0.0,0.0,0.0,0.0,0.0,0.0,0.0,0.0,0.0,0.0,-1.0,0.0,-1.0,2.0,0.0,-5.0,-2.0,-1.0,0.0,0.0,0.0,0.0,0.0,0.0,0.0
Julia,0.04102,-0.39551,0.91602,-4.0,1.0,2.0,0.0,-1.0,0.0,-2.0,-5.0,0.3125,1.3125,1.0,0.84155,-0.16565,-0.12451,0.49878,0.04932,-0.39844,0.9043,-3.0,-1.0,-2.0,1.0,-2.0,0.0,-1.0,-3.0,-0.375,-1.625,2.6875,0.83966,-0.16858,-0.12469,0.50092,0.06152,-0.47559,0.90771,0.0,3.0,2.0,7.0,12.0,3.0,-1.0,-7.0,-44.375,4.5625,26.4375,0.81604,-0.19867,-0.15363,0.52051,0.02686,-0.59131,0.79443,-2.0,-2.0,-1.0,-1.0,-2.0,-5.0,-3.0,-3.0,10.9375,8.5625,-17.1875,0.83624,-0.26233,-0.16046,0.45398
Julia,0.04199,-0.42334,0.89307,-1.0,3.0,0.0,-9.0,-1.0,1.0,1.0,-2.0,0.0,1.5,-1.0625,-0.84796,0.17792,0.12274,-0.48401,0.02832,-0.50537,0.90039,-4.0,5.0,5.0,1.0,5.0,9.0,3.0,-4.0,-41.0625,8.4375,34.5625,-0.83252,0.2171,0.12952,-0.49304,-0.05273,-0.56787,0.78369,-2.0,2.0,2.0,1.0,4.0,2.0,-1.0,1.0,-3.375,12.5,-21.1875,-0.81873,0.28198,0.1369,-0.48108,-0.03955,-0.60596,0.79688,1.0,1.0,6.0,2.0,1.0,-8.0,-2.0,0.0,-1.4375,2.4375,-2.0,-0.82953,0.27759,0.13403,-0.46576
Julia,0.05859,-0.37988,0.92334,2.0,0.0,-11.0,-10.0,-3.0,3.0,9.0,4.0,-0.3125,-0.25,0.6875,-0.61627,0.10052,0.16797,-0.76288,0.06104,-0.40381,0.92383,2.0,1.0,-2.0,1.0,1.0,3.0,2.0,-2.0,-12.375,4.8125,3.625,-0.61511,0.10773,0.17212,-0.7619,-0.0791,-0.53662,0.86768,-4.0,-8.0,-10.0,-4.0,-5.0,-8.0,-3.0,-14.0,-46.5625,30.3125,-14.5,-0.58643,0.19116,0.20978,-0.75867,0.00928,-0.60156,0.78662,-1.0,2.0,-1.0,-1.0,-4.0,2.0,0.0,3.0,3.75,-2.375,-9.375,-0.62158,0.21161,0.23126,-0.71796
communication,-0.0083,-0.54932,0.8291,5.0,0.0,0.0,-2.0,-2.0,0.0,-1.0,25.0,-2.125,-0.375,-0.0625,0.69006,-0.20526,-0.20233,0.66382,-0.03516,-0.61279,0.84229,0.0,-2.0,-3.0,-1.0,3.0,-2.0,-17.0,-9.0,-32.25,2.8125,23.625,0.66608,-0.23315,-0.21558,0.67487,-0.17285,-0.65381,0.68506,16.0,4.0,9.0,13.0,18.0,4.0,-9.0,7.0,-21.25,109.375,-25.875,0.68378,-0.34491,-0.17896,0.61761,-0.22559,-0.67822,0.6626,-16.0,-6.0,-5.0,-2.0,10.0,18.0,-3.0,-1.0,-0.125,-92.125,14.875,0.66907,-0.37164,-0.17377,0.61969
communication,-0.01709,-0.6001,0.79932,-2.0,-1.0,-3.0,-3.0,-3.0,-1.0,-3.0,-5.0,0.4375,0.8125,0.5625,-0.56079,0.19464,0.25159,-0.76447,-0.12891,-0.65771,0.76367,1.0,6.0,9.0,3.0,2.0,-23.0,-40.0,-1.0,-29.9375,14.0,9.5,-0.55438,0.22113,0.2572,-0.76001,-0.04688,-0.77783,0.74414,-2.0,3.0,7.0,9.0,5.0,7.0,12.0,-4.0,-40.0,135.3125,-36.9375,-0.57428,0.32764,0.26105,-0.70343,-0.37744,-0.70068,0.27637,-3.0,-2.0,-14.0,-16.0,-12.0,0.0,-10.0,-17.0,-34.25,-76.0,13.5625,-0.59863,0.50494,0.21924,-0.58191
communication,-0.02393,-0.56885,0.80176,-1.0,-1.0,-2.0,-5.0,-1.0,0.0,2.0,-2.0,-0.75,2.25,-0.9375,0.93414,-0.29694,0.07324,-0.18396,-0.10254,-0.66699,0.76709,-5.0,-7.0,-4.0,-8.0,-16.0,-20.0,4.0,-10.0,-33.875,24.8125,-17.1875,0.91699,-0.32892,0.09943,-0.20233,-0.02881,-0.76953,0.66064,2.0,6.0,19.0,22.0,24.0,25.0,7.0,0.0,-31.75,97.5,-0.6875,0.85248,-0.40472,0.19141,-0.26996,-0.22168,-0.78906,0.4248,1.0,-2.0,-6.0,-11.0,-3.0,13.0,1.0,31.0,-15.625,-127.875,-16.0625,0.80963,-0.42255,0.29492,-0.28094
communication,-0.03223,-0.5498,0.81396,-8.0,-20.0,-15.0,-1.0,-4.0,-5.0,-1.0,0.0,3.125,2.5625,1.75,0.81805,-0.23407,0.16565,-0.49854,0.0,0.0,0.0,1.0,7.0,1.0,-1.0,-5.0,-12.0,-8.0,-6.0,0.0,0.0,0.0,0.0,0.0,0.0,0.0,0.15283,-0.7915,0.81641,-1.0,1.0,2.0,5.0,3.0,9.0,7.0,0.0,-48.6875,50.375,-28.3125,0.70874,-0.32275,0.28351,-0.55957,-0.25098,-0.72754,0.31299,-3.0,1.0,4.0,12.0,9.0,3.0,-1.0,-14.0,-31.8125,-10.8125,38.8125,0.63696,-0.23535,0.44171,-0.5863
communication,-0.04932,-0.55225,0.82129,-2.0,-1.0,-2.0,-3.0,-3.0,-2.0,0.0,-2.0,0.125,0.0,-0.3125,0.64142,-0.21191,-0.198,0.71021,-0.0708,-0.55518,0.82373,-4.0,-1.0,-3.0,-5.0,-3.0,-4.0,-6.0,-16.0,-3.0,-3.3125,-1.125,0.64069,-0.21265,-0.19763,0.71082,0.0,0.0,0.0,-1.0,-3.0,-3.0,-1.0,-8.0,-29.0,-6.0,1.0,0.0,0.0,0.0,0.0,0.0,0.0,0.0,-0.36963,-0.62793,0.5625,3.0,0.0,2.0,7.0,9.0,19.0,10.0,92.0,1.25,161.8125,-16.3125,0.66974,-0.38196,-0.12695,0.62402
communication,-0.05176,0.80176,0.62695,6.0,19.0,-3.0,-8.0,-6.0,-7.0,-9.0,-16.0,12.125,15.3125,-0.1875,-0.86981,-0.39752,-0.14313,-0.25494,-0.2627,0.80469,0.51758,-39.0,-2.0,-8.0,4.0,-4.0,-1.0,1.0,2.0,34.3125,83.25,0.3125,-0.81964,-0.41016,-0.28131,-0.28442,-0.23926,0.9707,0.37256,-21.0,-28.0,-22.0,-14.0,-10.0,-10.0,-13.0,-30.0,22.8125,-56.75,17.0625,-0.78693,-0.4751,-0.29944,-0.2558,-0.29932,0.88086,0.25781,20.0,46.0,24.0,6.0,9.0,3.0,8.0,3.0,-12.5,92.6875,-7.0625,-0.76221,-0.4726,-0.3371,-0.28662
communication,-0.06396,-0.54004,0.82373,-4.0,-4.0,-4.0,-6.0,-7.0,-4.0,-3.0,-3.0,0.125,-0.1875,-1.625,0.58588,-0.19861,-0.20636,0.75806,-0.12158,-0.54297,0.81299,-6.0,20.0,31.0,2.0,-5.0,1.0,7.0,-63.0,-1.6875,-8.1875,-1.5625,0.58868,-0.19531,-0.20758,0.75641,0.12842,-0.68408,0.86865,-2.0,-1.0,-12.0,-24.0,-21.0,1.0,-1.0,-1.0,-23.75,38.0,2.75,0.5838,-0.229,-0.2619,0.73352,-0.42676,-0.65479,0.43408,6.0,-18.0,-24.0,1.0,6.0,5.0,14.0,46.0,-6.6875,52.1875,-6.875,0.6286,-0.39923,-0.13586,0.65344
communication,-0.07813,-0.61084,0.78125,-4.0,-5.0,-7.0,-2.0,-3.0,-2.0,-8.0,-9.0,-0.875,0.75,-0.5625,-0.79327,0.29645,0.14166,-0.51263,-0.16113,-0.62646,0.79199,-2.0,-5.0,-3.0,-7.0,-13.0,-19.0,-10.0,1.0,-9.0625,-13.0,13.25,-0.78662,0.30737,0.14764,-0.51483,-0.04248,-0.78711,0.79834,-1.0,-2.0,-1.0,4.0,-2.0,-15.0,-2.0,-13.0,-25.625,126.9375,-26.3125,-0.78827,0.36542,0.13715,-0.47577,-0.27832,-0.75098,0.54834,-1.0,-2.0,2.0,5.0,6.0,18.0,5.0,-38.0,-11.875,-101.75,-3.625,-0.78259,0.43231,0.09448,-0.43793
communication,-0.08301,-0.55908,0.81934,-1.0,-2.0,-2.0,-4.0,-3.0,3.0,1.0,6.0,1.125,0.5,-1.3125,0.72424,-0.25781,-0.15912,0.61938,-0.13086,-0.61572,0.80908,0.0,-1.0,-2.0,-4.0,-4.0,-10.0,-4.0,0.0,-4.5625,-2.3125,-2.0,0.72388,-0.25757,-0.16345,0.61877,-9.8E-4,-0.65234,0.81299,0.0,9.0,-10.0,-18.0,-21.0,-5.0,-3.0,-3.0,-18.25,35.0,-3.625,0.71606,-0.29578,-0.17169,0.60846,-0.46484,-0.62891,0.46826,-1.0,-5.0,-6.0,-3.0,-3.0,-10.0,-17.0,-39.0,-9.25,62.375,-3.375,0.74994,-0.41003,-0.04956,0.51666
communication,-0.08447,-0.56641,0.82129,0.0,-3.0,-4.0,-3.0,-1.0,1.0,0.0,-2.0,1.1875,0.125,-1.9375,0.68549,-0.2403,-0.17688,0.66412,-0.09863,-0.61084,0.79932,0.0,0.0,0.0,0.0,-1.0,-2.0,-2.0,-14.0,-14.1875,3.6875,10.5625,0.66913,-0.25256,-0.18652,0.67352,0.0,0.0,0.0,-3.0,6.0,5.0,4.0,-7.0,-14.0,-17.0,3.0,0.0,0.0,0.0,0.0,0.0,0.0,0.0,-0.43799,-0.69629,0.44678,5.0,9.0,1.0,3.0,1.0,9.0,13.0,0.0,-17.3125,9.25,1.375,0.68286,-0.47357,-0.08368,0.54993
communication,-0.10254,-0.57227,0.80713,-2.0,-2.0,-3.0,-7.0,-6.0,-6.0,-3.0,-4.0,-1.5,3.6875,1.375,0.6908,-0.25903,-0.1756,0.65179,0.0,0.0,0.0,8.0,-5.0,-2.0,1.0,3.0,-1.0,0.0,2.0,0.0,0.0,0.0,0.0,0.0,0.0,0.0,-0.01514,-0.65723,0.84912,-4.0,3.0,-2.0,-3.0,-2.0,1.0,0.0,-7.0,-20.4375,32.5,9.625,0.68158,-0.29523,-0.19006,0.64203,-0.46582,-0.60986,0.48926,17.0,-4.0,-4.0,-9.0,-7.0,-9.0,-4.0,-6.0,-4.9375,48.6875,4.6875,0.70856,-0.41364,-0.06427,0.56805
communication,-0.11426,0.79785,0.64551,4.0,5.0,11.0,5.0,-1.0,-1.0,0.0,5.0,4.1875,2.3125,1.375,-0.57996,-0.22058,-0.35913,-0.6972,0.0,0.0,0.0,-3.0,-8.0,-3.0,-3.0,-3.0,-6.0,-1.0,7.0,0.0,0.0,0.0,0.0,0.0,0.0,0.0,0.0,0.0,0.0,-57.0,-53.0,-38.0,-27.0,-11.0,-5.0,-5.0,-4.0,0.0,0.0,0.0,0.0,0.0,0.0,0.0,-0.53857,0.88574,0.13477,6.0,4.0,-3.0,-3.0,-3.0,-1.0,2.0,2.0,22.375,-104.875,24.25,-0.46625,-0.12732,-0.62524,-0.61285
communication,-0.12305,-0.64209,0.79443,-2.0,-1.0,-1.0,1.0,1.0,2.0,-1.0,-12.0,1.9375,-0.1875,-1.8125,-0.44049,0.1767,0.27533,-0.83606,-0.02783,-0.64697,0.79639,8.0,5.0,10.0,10.0,17.0,32.0,17.0,10.0,-27.3125,4.8125,-7.875,-0.44012,0.18787,0.29437,-0.82727,-0.21338,-0.64697,0.69531,3.0,-1.0,1.0,-2.0,-6.0,-7.0,-8.0,3.0,-3.25,158.0,-13.4375,-0.47156,0.2951,0.27039,-0.78577,-0.35938,-0.65332,0.47607,4.0,8.0,1.0,-5.0,-3.0,9.0,3.0,-4.0,-13.4375,-106.5,-2.5625,-0.47821,0.37201,0.2691,-0.74872
communication,-0.12354,-0.60254,0.78711,-6.0,-7.0,-2.0,-3.0,-1.0,-1.0,-12.0,-19.0,2.1875,3.9375,-0.8125,-1.8E-4,0.06824,0.32159,-0.9444,-0.16895,-0.65918,0.76514,-39.0,-13.0,-7.0,-7.0,-9.0,-27.0,-30.0,-19.0,-13.25,-4.75,-1.25,0.00317,0.06927,0.33423,-0.93994,0.07568,-0.74512,0.7627,4.0,1.0,4.0,6.0,14.0,6.0,-7.0,4.0,-53.4375,53.4375,-53.6875,-0.05499,0.05682,0.41772,-0.90515,-0.37012,-0.75732,0.29004,0.0,-3.0,0.0,-1.0,6.0,22.0,3.0,17.0,-21.1875,-48.0,27.0,-0.16754,0.24274,0.44275,-0.84674
communication,-0.16211,-0.61182,0.77246,-4.0,-3.0,-1.0,0.0,-7.0,-9.0,-13.0,-19.0,-0.8125,0.3125,-0.3125,0.91968,-0.30615,0.14874,-0.1958,-0.16309,-0.61426,0.75,-3.0,-1.0,-3.0,-4.0,-8.0,-7.0,-5.0,-8.0,-0.625,-0.8125,1.625,0.91907,-0.30695,0.15167,-0.19507,0.0415,-0.75195,0.81787,-10.0,-6.0,5.0,17.0,20.0,32.0,-3.0,-25.0,-32.8125,13.0,-16.5625,0.90515,-0.36133,0.12286,-0.18701,-0.47949,-0.7627,0.36523,-9.0,-6.0,-2.0,-9.0,-9.0,-14.0,-20.0,-18.0,-10.75,87.5625,12.25,0.82867,-0.33691,0.32318,-0.30872
communication,-0.1748,-0.58887,0.78516,0.0,0.0,-4.0,-1.0,0.0,-2.0,-2.0,4.0,0.75,-1.0,-0.125,0.57947,-0.26447,-0.18884,0.74738,-0.17383,-0.59668,0.78613,2.0,4.0,1.0,1.0,5.0,16.0,20.0,28.0,-1.8125,-5.5,-0.25,0.5791,-0.26245,-0.19067,0.74786,-0.04443,-0.7168,0.81689,14.0,7.0,7.0,2.0,2.0,1.0,-4.0,4.0,-27.3125,19.0625,-13.1875,0.58069,-0.27521,-0.21973,0.73395,-0.44043,-0.66455,0.5,5.0,-2.0,-2.0,6.0,4.0,-8.0,-8.0,5.0,-17.0,-40.875,14.6875,0.6153,-0.38928,-0.15912,0.66669
communication,-0.17676,0.76416,0.63574,-27.0,-23.0,3.0,3.0,-2.0,0.0,-2.0,-4.0,9.1875,11.375,-4.25,-0.51239,-0.29944,0.29126,0.75031,-0.2749,0.81592,0.62598,-6.0,-11.0,14.0,5.0,5.0,4.0,5.0,4.0,21.8125,102.0625,-44.8125,-0.50403,-0.37457,0.26715,0.73096,-0.68408,0.70947,0.1958,2.0,4.0,-1.0,-2.0,-7.0,-1.0,-3.0,-17.0,62.0,-57.9375,9.875,-0.47772,-0.52765,0.21588,0.66846,-0.23096,0.99365,0.61963,-28.0,-19.0,-5.0,-6.0,-2.0,0.0,-5.0,20.0,-23.6875,102.6875,-35.75,-0.45386,-0.45856,0.3114,0.69769
communication,-0.17871,0.81055,0.61328,6.0,11.0,13.0,7.0,2.0,2.0,4.0,9.0,10.25,-0.5625,-0.25,-0.53424,-0.32239,0.29639,0.72308,-0.28809,0.85693,0.57813,-17.0,-28.0,-8.0,1.0,-8.0,-2.0,0.0,-20.0,13.4375,101.0625,-32.75,-0.52625,-0.39642,0.27161,0.70154,-0.56982,0.7417,0.28955,-10.0,-12.0,-4.0,0.0,-2.0,-2.0,-6.0,-39.0,40.9375,-57.0,11.8125,-0.51813,-0.49866,0.24475,0.65045,-0.2168,0.93457,0.48975,-36.0,-15.0,-9.0,-6.0,6.0,4.0,-2.0,-9.0,-32.5,86.8125,-22.875,-0.51544,-0.43793,0.3031,0.67133
communication,-0.18701,0.81885,0.62842,-2.0,-6.0,-12.0,-11.0,-11.0,-4.0,-4.0,-6.0,7.125,9.1875,-1.125,0.20593,0.19598,-0.39197,-0.87494,-0.46533,0.75684,0.37939,-35.0,-16.0,7.0,5.0,4.0,4.0,16.0,18.0,21.4375,32.5,1.375,0.21869,0.38666,-0.39777,-0.8028,-0.38379,0.8252,0.32666,1.0,2.0,-11.0,-8.0,3.0,2.0,4.0,11.0,-17.5,86.625,-23.25,0.20654,0.33948,-0.45197,-0.79865,-0.25928,0.91016,0.44873,-1.0,16.0,11.0,1.0,3.0,1.0,2.0,-1.0,-2.875,-45.625,16.6875,0.18622,0.32208,-0.46313,-0.80444
communication,-0.19824,0.74707,0.59326,-3.0,10.0,12.0,10.0,5.0,1.0,-1.0,-10.0,-6.75,-9.3125,-3.875,-0.56091,-0.35107,0.2608,0.70294,-0.17334,0.84912,0.62354,-1.0,6.0,2.0,2.0,5.0,0.0,-1.0,-3.0,3.5625,14.1875,-5.3125,-0.55658,-0.34052,0.27252,0.70715,-0.48975,0.74707,0.35449,18.0,8.0,0.0,1.0,3.0,0.0,0.0,-1.0,56.0,45.25,7.1875,-0.55658,-0.48224,0.21875,0.6402,0.43652,1.12549,0.58496,-17.0,-16.0,4.0,-3.0,1.0,7.0,11.0,13.0,23.8125,46.1875,-24.1875,-0.51019,-0.45038,0.33667,0.65076
communication,-0.20068,0.74951,0.64258,-2.0,-5.0,-7.0,-4.0,-2.0,-2.0,-3.0,-10.0,3.4375,2.375,-1.1875,-0.51978,-0.32916,0.27094,0.74036,-0.26465,0.87305,0.63721,-4.0,-2.0,-9.0,-5.0,7.0,2.0,1.0,-8.0,17.6875,95.625,-36.1875,-0.51685,-0.38043,0.26666,0.71906,0.0,0.0,0.0,-22.0,2.0,8.0,2.0,-7.0,0.0,-1.0,-17.0,0.0,0.0,0.0,0.0,0.0,0.0,0.0,-0.61572,0.84229,0.11865,-30.0,-22.0,-7.0,-5.0,8.0,-2.0,3.0,-58.0,-14.9375,127.125,-18.3125,-0.4942,-0.54291,0.25995,0.6272
communication,-0.22021,0.73926,0.6499,3.0,1.0,5.0,4.0,0.0,1.0,3.0,12.0,0.0625,1.25,-0.25,-0.55536,-0.34692,0.2439,0.71533,0.0,0.0,0.0,46.0,51.0,-6.0,-13.0,-13.0,-7.0,-4.0,-3.0,0.0,0.0,0.0,0.0,0.0,0.0,0.0,-0.57031,0.69629,0.31299,4.0,-2.0,-8.0,-2.0,9.0,6.0,3.0,10.0,24.6875,59.3125,11.4375,-0.54346,-0.5498,0.12976,0.62091,0.0,0.0,0.0,-52.0,-42.0,-4.0,1.0,5.0,2.0,2.0,-3.0,0.0,0.0,0.0,0.0,0.0,0.0,0.0
communication,-0.22656,0.58594,0.79443,-11.0,-7.0,-7.0,-10.0,-7.0,3.0,2.0,-9.0,0.875,0.625,-0.4375,-0.40442,-0.02002,-0.32697,-0.854,-0.24902,0.63623,0.79297,-58.0,-57.0,-26.0,-21.0,-22.0,-17.0,-20.0,-31.0,50.6875,34.0625,-16.6875,-0.40277,-0.01721,-0.36035,-0.84125,-0.50879,0.68457,0.38037,-8.0,8.0,-12.0,-7.0,-3.0,-6.0,-3.0,8.0,33.1875,43.0625,39.125,-0.33618,0.04047,-0.49371,-0.80103,9.8E-4,0.98486,0.60498,-25.0,-32.0,-6.0,3.0,13.0,14.0,11.0,25.0,-14.75,62.9375,-20.9375,-0.32446,-0.07581,-0.51831,-0.78766
communication,-0.23193,0.60205,0.78906,-16.0,-13.0,-10.0,-8.0,-8.0,-8.0,-16.0,-16.0,2.0,1.125,-0.75,0.0,0.0,0.0,0.0,-0.29199,0.625,0.75488,-18.0,26.0,42.0,22.0,22.0,11.0,8.0,-2.0,46.1875,28.6875,-10.1875,-0.40424,-0.01544,-0.36267,-0.8396,-0.49707,0.70459,0.42773,-70.0,-30.0,11.0,10.0,1.0,4.0,6.0,14.0,32.1875,44.8125,29.3125,-0.36176,0.03577,-0.49908,-0.78668,0.1543,1.01367,0.68213,16.0,29.0,12.0,-1.0,1.0,1.0,-1.0,4.0,15.4375,2.375,-8.875,-0.34967,-0.07507,-0.52771,-0.77057
communication,-0.24463,0.85303,0.51318,9.0,21.0,16.0,4.0,1.0,0.0,0.0,-2.0,2.625,10.5,-29.25,-0.5675,-0.44458,0.26166,0.64172,-0.63916,0.80908,0.32861,0.0,16.0,9.0,2.0,6.0,4.0,2.0,-13.0,19.875,-57.1875,7.875,-0.53149,-0.53284,0.21307,0.62311,0.0,0.0,0.0,5.0,-6.0,-8.0,-4.0,-1.0,-1.0,0.0,19.0,0.0,0.0,0.0,0.0,0.0,0.0,0.0,-0.38184,0.84961,0.39111,-7.0,-11.0,4.0,6.0,2.0,0.0,0.0,-2.0,-0.5625,0.0625,0.6875,-0.55542,-0.48871,0.24561,0.6264
communication,-0.26855,0.59473,0.76953,15.0,9.0,5.0,2.0,5.0,4.0,1.0,11.0,1.3125,1.375,-0.375,-0.35071,0.0127,-0.34058,-0.87231,-0.33203,0.64453,0.73828,8.0,-27.0,-31.0,-18.0,-7.0,-7.0,-17.0,-27.0,44.625,31.8125,-20.0625,-0.3526,0.0249,-0.3808,-0.85449,-0.64111,0.66455,0.33398,37.0,34.0,8.0,4.0,0.0,2.0,-5.0,22.0,66.0,-20.9375,48.5625,-0.30463,0.08807,-0.48413,-0.81555,-0.37988,0.79736,0.46777,14.0,16.0,4.0,-1.0,2.0,-2.0,2.0,28.0,-34.1875,96.375,-25.5,-0.28931,0.01105,-0.50323,-0.81427
communication,-0.28955,0.79199,0.5415,-6.0,-8.0,-2.0,0.0,0.0,0.0,-2.0,-5.0,-1.4375,-3.6875,2.6875,-0.53143,-0.40094,0.26123,0.69897,0.0,0.0,0.0,7.0,1.0,12.0,8.0,2.0,-3.0,-6.0,10.0,0.0,0.0,0.0,0.0,0.0,0.0,0.0,-0.67969,0.64844,0.2583,13.0,8.0,6.0,-1.0,-12.0,-1.0,12.0,26.0,29.25,-34.875,11.1875,-0.49866,-0.52405,0.17017,0.66913,-0.2998,0.86377,0.49902,-6.0,-10.0,6.0,4.0,-16.0,-9.0,6.0,28.0,-21.9375,81.4375,-16.875,-0.5202,-0.466,0.25446,0.66895
communication,-0.3125,0.55664,0.7915,6.0,9.0,13.0,3.0,-2.0,0.0,1.0,-2.0,3.9375,2.75,-0.125,-0.93823,-0.30286,-0.12933,0.10626,-0.40625,0.64209,0.66406,-13.0,-24.0,-4.0,-6.0,-23.0,-9.0,-9.0,-8.0,46.375,33.3125,-21.25,-0.91608,-0.34949,-0.16046,0.11383,-0.64502,0.71387,0.33301,-16.0,-14.0,3.0,2.0,3.0,5.0,12.0,22.0,58.4375,-27.6875,31.75,-0.85986,-0.45313,-0.22552,0.06714,0.0,0.0,0.0,21.0,24.0,8.0,1.0,-6.0,1.0,18.0,5.0,0.0,0.0,0.0,0.0,0.0,0.0,0.0
communication,-0.31934,0.55811,0.79443,-11.0,-10.0,-14.0,-11.0,-8.0,-13.0,-4.0,-10.0,-0.5,7.0,-3.625,-0.92987,-0.31329,-0.12158,0.14996,-0.47607,0.62598,0.66992,2.0,-36.0,-18.0,-12.0,-4.0,-1.0,-5.0,2.0,44.3125,62.375,-14.125,-0.8974,-0.36993,-0.1795,0.16028,-0.6084,0.6416,0.35791,-43.0,-32.0,-3.0,3.0,1.0,-1.0,0.0,-18.0,43.1875,20.1875,34.75,-0.84796,-0.44958,-0.26221,0.10101,0.22412,0.94336,0.73486,47.0,43.0,-2.0,-6.0,1.0,6.0,-3.0,-11.0,19.4375,-22.4375,3.75,-0.84796,-0.4978,-0.1333,0.12433
communication,-0.60547,0.62012,0.52686,1.0,-1.0,3.0,-2.0,0.0,0.0,-1.0,-1.0,-0.625,-1.375,-1.5625,-0.87238,-0.34247,-0.34839,-0.02026,-0.6167,0.65967,0.53467,17.0,11.0,2.0,-2.0,-3.0,-2.0,4.0,17.0,21.25,7.625,-7.125,-0.86993,-0.34735,-0.34991,-0.01294,-0.65625,0.66992,0.35156,38.0,45.0,21.0,14.0,8.0,4.0,7.0,14.0,8.375,49.1875,40.0,-0.81866,-0.40613,-0.40546,-0.0235,-0.44873,0.92529,0.30615,34.0,29.0,0.0,-5.0,0.0,-9.0,-6.0,0.0,37.9375,-101.8125,39.1875,-0.81128,-0.5094,-0.27856,-0.06946
communication,-0.61719,0.60205,0.53906,-4.0,-6.0,-8.0,-4.0,-3.0,1.0,0.0,0.0,2.4375,0.5625,-1.1875,-0.37085,0.17896,-0.45258,-0.79102,0.0,0.0,0.0,-21.0,-32.0,-6.0,3.0,-4.0,1.0,0.0,2.0,0.0,0.0,0.0,0.0,0.0,0.0,0.0,-0.75684,0.73877,0.22412,-7.0,-5.0,-3.0,2.0,-2.0,1.0,1.0,4.0,49.4375,-43.6875,77.1875,-0.31427,0.14056,-0.56049,-0.75323,0.11426,1.08838,0.64258,-5.0,-3.0,-8.0,-14.0,2.0,-7.0,-9.0,-16.0,1.0,45.0625,-13.875,-0.30548,-0.03082,-0.5719,-0.7608
communication,-0.62793,0.56348,0.5625,4.0,1.0,0.0,0.0,0.0,0.0,-3.0,6.0,-1.875,0.625,-2.8125,-0.37866,0.17328,-0.44006,-0.79565,-0.63232,0.69434,0.42627,-86.0,-28.0,-22.0,-13.0,-8.0,-11.0,-19.0,-64.0,65.25,32.6875,-2.75,-0.39032,0.17078,-0.48505,-0.76373,-0.72217,0.74365,0.26074,20.0,29.0,3.0,2.0,8.0,7.0,3.0,14.0,43.1875,-94.0,83.3125,-0.31555,0.09814,-0.56128,-0.75885,-0.50439,0.80615,0.35889,-15.0,10.0,6.0,3.0,2.0,-2.0,-9.0,-19.0,-8.5,78.125,-45.1875,-0.30078,0.03156,-0.54633,-0.78113
communication,-0.63623,0.64551,0.48389,0.0,-3.0,-1.0,0.0,-1.0,-4.0,1.0,0.0,0.1875,-1.6875,-1.625,-0.85687,-0.34985,-0.37701,-0.03571,-0.68896,0.68555,0.36914,-73.0,-79.0,-24.0,-14.0,-11.0,-10.0,-15.0,-35.0,43.1875,27.625,-24.5625,-0.82959,-0.38043,-0.40881,-0.00153,-0.67041,0.68945,0.18604,-5.0,-12.0,-6.0,-4.0,-2.0,-7.0,-2.0,-28.0,1.875,-59.25,65.4375,-0.78821,-0.43011,-0.43628,-0.05908,-0.16357,0.71289,0.5415,-10.0,-1.0,2.0,-2.0,1.0,2.0,1.0,0.0,12.875,-56.625,19.125,-0.82001,-0.52539,-0.22687,-0.0155
communication,-0.63867,0.60889,0.51416,-2.0,1.0,2.0,2.0,1.0,-4.0,-3.0,-9.0,0.5,0.375,-1.0625,-0.86475,-0.32349,-0.38153,-0.04614,-0.69531,0.6499,0.46973,16.0,10.0,-10.0,-2.0,-4.0,-8.0,-4.0,20.0,26.6875,11.75,-12.875,-0.85498,-0.33765,-0.39221,-0.03461,-0.68262,0.61768,0.2124,-6.0,-7.0,-4.0,-5.0,-2.0,-5.0,-7.0,-15.0,-3.875,29.5,59.0,-0.79089,-0.39099,-0.46826,-0.04919,0.18066,1.0498,0.68555,-25.0,-26.0,11.0,10.0,-1.0,-4.0,-12.0,-13.0,22.25,-24.3125,-16.625,-0.82532,-0.50208,-0.24738,-0.07507
communication,-0.6416,0.59766,0.5332,-6.0,-2.0,-2.0,-1.0,-5.0,-5.0,-2.0,-21.0,1.875,1.1875,-0.5625,-0.41443,0.15717,-0.46558,-0.76605,-0.68701,0.59717,0.50635,-18.0,4.0,6.0,9.0,8.0,7.0,5.0,13.0,35.25,29.875,-16.4375,-0.41736,0.16394,-0.48486,-0.75092,-0.75537,0.55518,0.18164,14.0,21.0,2.0,-12.0,-16.0,-12.0,-12.0,-56.0,15.5625,16.375,57.25,-0.367,0.21027,-0.56714,-0.70679,-0.00586,0.90771,0.58154,3.0,2.0,-27.0,-19.0,-11.0,-3.0,-4.0,-15.0,41.1875,-88.8125,35.6875,-0.3656,-0.00812,-0.56482,-0.73981
communication,-0.68457,0.62012,0.41553,-4.0,-2.0,-7.0,-1.0,-2.0,0.0,0.0,0.0,-0.75,-1.25,1.75,-0.43097,0.16418,-0.51947,-0.71942,-0.69385,0.66113,0.40039,-10.0,-19.0,-5.0,8.0,2.0,-3.0,-5.0,-1.0,17.625,11.625,3.25,-0.43243,0.15503,-0.53998,-0.70532,-0.69775,0.66406,0.20215,-22.0,-32.0,2.0,4.0,-5.0,-2.0,-2.0,17.0,9.4375,-45.0,71.3125,-0.38177,0.12646,-0.58997,-0.7002,0.02295,1.03857,0.62695,-42.0,-42.0,-7.0,1.0,-2.0,2.0,3.0,-2.0,-8.75,28.4375,-14.25,-0.39465,-0.10706,-0.54651,-0.7309
communication,-0.74609,0.57617,0.39844,-4.0,-5.0,-4.0,-1.0,0.0,1.0,1.0,-3.0,-0.0625,-0.5,1.25,-0.83466,-0.35052,-0.42358,0.03284,-0.77051,0.62695,0.3252,13.0,11.0,-9.0,-5.0,-3.0,-2.0,-1.0,2.0,21.4375,53.5,19.375,-0.80768,-0.38202,-0.44843,0.0274,-0.61084,0.68848,0.14307,14.0,30.0,15.0,1.0,-10.0,-8.0,-9.0,-18.0,3.625,-72.0,68.0,-0.771,-0.42334,-0.46857,-0.08313,0.15625,1.06104,0.60889,-17.0,-22.0,-19.0,-14.0,-6.0,-4.0,0.0,1.0,21.3125,-41.4375,5.0,-0.81537,-0.53326,-0.21948,-0.05212
communication,-0.74805,0.54883,0.41846,-1.0,-3.0,3.0,2.0,-2.0,2.0,3.0,3.0,2.9375,-1.4375,0.8125,-0.3985,0.2345,-0.49042,-0.73877,-0.75684,0.63379,0.31299,4.0,19.0,9.0,0.0,-5.0,4.0,10.0,15.0,33.25,38.0,-6.3125,-0.40118,0.23572,-0.52881,-0.7099,-0.83203,0.59766,0.10303,-7.0,-23.0,-11.0,-8.0,-11.0,-6.0,-4.0,36.0,-16.75,-24.8125,108.25,-0.32733,0.23248,-0.58173,-0.70746,0.25879,0.83203,0.7207,10.0,14.0,1.0,-5.0,-16.0,-12.0,-6.0,15.0,26.6875,-64.9375,29.75,-0.3219,-0.00793,-0.56836,-0.7572
communication,-0.7583,0.58594,0.38379,-3.0,-4.0,-7.0,-7.0,-3.0,-1.0,0.0,-3.0,0.625,1.75,-0.1875,-0.56958,0.08783,-0.55365,-0.6012,-0.75293,0.56006,0.33887,-15.0,-7.0,-1.0,-3.0,-2.0,-2.0,-5.0,7.0,27.6875,24.1875,-7.1875,-0.56348,0.08466,-0.59015,-0.57196,0.0,0.0,0.0,7.0,11.0,6.0,4.0,1.0,0.0,-4.0,-55.0,0.0,0.0,0.0,0.0,0.0,0.0,0.0,-0.41357,0.86865,0.35938,4.0,-1.0,-12.0,-10.0,-3.0,0.0,-1.0,4.0,-16.5625,68.1875,-28.375,-0.52026,-0.13123,-0.54034,-0.64825
communication,-0.75928,0.57813,0.36719,3.0,2.0,4.0,1.0,2.0,2.0,2.0,4.0,10.375,-1.75,-4.125,-0.3725,0.25464,-0.50397,-0.73651,-0.78711,0.57959,0.26855,-34.0,-21.0,-2.0,-1.0,2.0,-3.0,-8.0,-22.0,18.5,32.25,9.5,-0.36884,0.271,-0.54865,-0.69971,-0.81396,0.64502,0.1875,-3.0,9.0,-2.0,-4.0,-6.0,-3.0,5.0,24.0,27.625,-97.9375,65.25,-0.31989,0.19421,-0.56464,-0.73572,-0.45215,0.86914,0.42871,3.0,1.0,0.0,0.0,-3.0,-2.0,-5.0,22.0,-17.25,56.6875,-18.625,-0.31268,0.03973,-0.55225,-0.77191
communication,0.0,0.0,0.0,-1.0,0.0,2.0,8.0,7.0,1.0,-1.0,1.0,0.0,0.0,0.0,0.0,0.0,0.0,0.0,-0.19678,-0.63965,0.75244,2.0,6.0,-2.0,-7.0,-5.0,2.0,36.0,21.0,-9.5625,-0.75,-1.5,-0.79871,0.31793,0.12561,-0.49524,0.14453,-0.72559,0.85449,8.0,7.0,11.0,9.0,16.0,31.0,21.0,48.0,-22.5625,80.8125,-29.5625,-0.79974,0.3598,0.13306,-0.46179,-0.44824,-0.77148,0.45557,2.0,-2.0,-2.0,-7.0,-9.0,-3.0,9.0,15.0,-30.25,-85.5625,17.0,-0.80011,0.45587,0.00928,-0.38983
communication,0.0,0.0,0.0,-15.0,-14.0,-4.0,-3.0,-4.0,-2.0,-3.0,-6.0,0.0,0.0,0.0,0.0,0.0,0.0,0.0,-0.64551,0.70264,0.40527,-2.0,19.0,26.0,17.0,8.0,10.0,16.0,13.0,37.0625,46.0625,7.8125,-0.35291,0.19519,-0.52899,-0.7467,-0.72461,0.80225,0.27148,0.0,14.0,12.0,5.0,4.0,1.0,-3.0,5.0,39.6875,-120.0,102.4375,-0.30786,0.05756,-0.56012,-0.76697,-0.44385,0.84521,0.33301,-25.0,-35.0,-3.0,7.0,16.0,3.0,-6.0,-18.0,-6.1875,95.3125,-37.1875,-0.28479,0.01263,-0.54077,-0.79144
communication,0.0,0.0,0.0,-2.0,-2.0,-2.0,-1.0,-2.0,-3.0,-5.0,0.0,0.0,0.0,0.0,0.0,0.0,0.0,0.0,0.0,0.0,0.0,-4.0,-4.0,-2.0,4.0,5.0,-12.0,-10.0,-2.0,0.0,0.0,0.0,0.0,0.0,0.0,0.0,-0.25928,-0.7168,0.68213,-1.0,-5.0,-11.0,-13.0,-20.0,-27.0,-11.0,-4.0,-27.0625,148.3125,-4.1875,0.90393,-0.4007,0.14703,-0.02679,-0.36133,-0.75244,0.46484,-11.0,-4.0,-5.0,5.0,2.0,5.0,-2.0,-6.0,-12.1875,-142.75,-16.25,0.8725,-0.44153,0.20905,-0.00873
communication,0.0,0.0,0.0,-3.0,0.0,-2.0,-1.0,0.0,3.0,-1.0,-12.0,0.0,0.0,0.0,0.0,0.0,0.0,0.0,0.0,0.0,0.0,-85.0,-43.0,-35.0,-24.0,-16.0,-6.0,-1.0,2.0,0.0,0.0,0.0,0.0,0.0,0.0,0.0,-0.65039,0.62109,0.32031,-23.0,13.0,12.0,2.0,-15.0,-6.0,7.0,10.0,39.6875,67.8125,54.125,-0.26819,0.15369,-0.47083,-0.82635,0.4458,0.96631,0.80615,29.0,46.0,9.0,2.0,-4.0,0.0,0.0,10.0,36.9375,-26.9375,-2.625,-0.28058,0.01263,-0.52844,-0.80121
communication,0.0,0.0,0.0,-5.0,2.0,-1.0,-1.0,-4.0,-3.0,-2.0,-4.0,0.0,0.0,0.0,0.0,0.0,0.0,0.0,0.0,0.0,0.0,-22.0,-37.0,-29.0,-15.0,-9.0,-5.0,-5.0,6.0,0.0,0.0,0.0,0.0,0.0,0.0,0.0,-0.50684,0.79248,0.30078,5.0,-5.0,2.0,6.0,6.0,3.0,2.0,7.0,46.3125,-35.8125,-4.1875,-0.74683,-0.37561,-0.41168,-0.3631,-0.41553,0.87256,0.28125,17.0,16.0,5.0,2.0,-6.0,1.0,-4.0,18.0,-8.375,102.6875,-24.125,-0.7395,-0.40417,-0.40839,-0.35083
communication,0.0,0.0,0.0,0.0,0.0,0.0,-2.0,-5.0,-13.0,-7.0,-5.0,0.0,0.0,0.0,0.0,0.0,0.0,0.0,-0.09229,-0.64404,0.7627,-4.0,2.0,3.0,3.0,6.0,7.0,10.0,1.0,-14.6875,22.0,-5.3125,0.87842,-0.2937,0.14355,-0.34851,0.06055,-0.84717,0.75684,-3.0,-2.0,2.0,-6.0,-17.0,-11.0,4.0,-12.0,-34.4375,93.0,-16.3125,0.82471,-0.35712,0.21881,-0.38007,0.0,0.0,0.0,-3.0,1.0,2.0,6.0,5.0,-4.0,-7.0,4.0,0.0,0.0,0.0,0.0,0.0,0.0,0.0
communication,0.0,0.0,0.0,2.0,3.0,5.0,9.0,10.0,8.0,-1.0,2.0,0.0,0.0,0.0,0.0,0.0,0.0,0.0,-0.00391,-0.57617,0.81738,-4.0,-1.0,2.0,-1.0,-5.0,-4.0,0.0,-7.0,-24.875,11.0,4.0625,0.48871,-0.16431,0.27161,-0.81268,-0.12695,-0.71436,0.69824,-4.0,-1.0,-3.0,-9.0,-11.0,6.0,13.0,11.0,-15.375,100.6875,-8.375,0.42859,-0.11426,0.36475,-0.81866,-0.36377,-0.75537,0.4751,-3.0,2.0,-2.0,4.0,8.0,-1.0,-3.0,-3.0,-28.25,-54.5,-9.3125,0.32202,0.01361,0.48376,-0.81366
communication,0.0,0.0,0.0,4.0,4.0,6.0,2.0,4.0,4.0,-7.0,-1.0,0.0,0.0,0.0,0.0,0.0,0.0,0.0,-0.13525,-0.74463,0.7002,-5.0,-4.0,-6.0,-12.0,-9.0,-10.0,-5.0,-3.0,-44.25,-12.9375,-15.4375,0.55719,-0.19086,0.33759,-0.73431,-0.2959,-0.65869,0.50684,-1.0,-1.0,0.0,6.0,15.0,21.0,12.0,6.0,-36.8125,169.6875,-3.4375,0.47876,-0.1308,0.43372,-0.75208,-0.20654,-0.79395,0.55859,-6.0,-8.0,-15.0,-15.0,-11.0,4.0,2.0,-14.0,21.1875,-127.5625,-14.8125,0.48779,-0.16553,0.45435,-0.72681
communication,0.0,0.0,0.0,5.0,3.0,-4.0,-3.0,-2.0,-1.0,0.0,-20.0,0.0,0.0,0.0,0.0,0.0,0.0,0.0,0.0,0.0,0.0,35.0,-2.0,-7.0,1.0,-4.0,-5.0,-4.0,3.0,0.0,0.0,0.0,0.0,0.0,0.0,0.0,-0.68848,0.68359,0.20166,-4.0,-18.0,8.0,12.0,4.0,0.0,4.0,2.0,12.5,-74.625,60.25,-0.30688,0.18689,-0.56854,-0.74011,0.07324,1.07275,0.61816,-36.0,-46.0,-23.0,-7.0,-4.0,2.0,4.0,5.0,1.1875,10.75,-2.0625,-0.33154,-0.0152,-0.54584,-0.76941
communication,0.0,0.0,0.0,7.0,11.0,19.0,17.0,19.0,8.0,1.0,9.0,0.0,0.0,0.0,0.0,0.0,0.0,0.0,-0.10107,-0.68408,0.73535,-5.0,-2.0,-2.0,6.0,6.0,-4.0,-11.0,-5.0,-30.625,-6.625,-9.9375,0.93353,-0.33948,0.05493,-0.10126,0.0,0.0,0.0,4.0,5.0,8.0,-1.0,18.0,33.0,15.0,5.0,0.0,0.0,0.0,0.0,0.0,0.0,0.0,0.0,0.0,0.0,3.0,2.0,-2.0,1.0,8.0,4.0,2.0,-2.0,0.0,0.0,0.0,0.0,0.0,0.0,0.0
communication,0.01123,-0.56396,0.79883,0.0,1.0,0.0,3.0,7.0,2.0,3.0,1.0,-0.5,0.5,0.9375,0.91687,-0.28729,0.07721,-0.26611,-0.07715,-0.61865,0.74609,0.0,0.0,0.0,0.0,0.0,0.0,0.0,0.0,-26.0,29.4375,-7.875,0.90631,-0.30084,0.11224,-0.27478,0.19434,-0.7832,0.80859,0.0,3.0,10.0,17.0,22.0,22.0,11.0,0.0,-39.9375,18.5,-15.9375,0.85583,-0.38446,0.15894,-0.30737,-0.36475,-0.73535,0.35059,5.0,7.0,0.0,-1.0,-1.0,9.0,7.0,33.0,-18.25,115.9375,23.125,0.76917,-0.33783,0.38763,-0.37946
communication,0.01611,-0.59619,0.80713,-1.0,-2.0,-2.0,-1.0,-3.0,-1.0,-1.0,-1.0,-0.5625,0.375,0.375,0.32202,-0.09552,-0.29846,0.89331,-0.05615,-0.62109,0.77588,-3.0,-4.0,-4.0,-5.0,-9.0,-13.0,-3.0,-23.0,-17.125,3.25,11.8125,0.31165,-0.11383,-0.30896,0.8913,-0.0332,-0.73047,0.75439,2.0,-8.0,-10.0,-6.0,-16.0,-9.0,-3.0,-2.0,-29.8125,73.375,11.875,0.29565,-0.2157,-0.3476,0.86322,-0.50537,-0.66162,0.28906,-3.0,-3.0,-7.0,-7.0,-11.0,-8.0,0.0,-18.0,-8.625,68.0625,-1.625,0.36072,-0.50354,-0.26837,0.73779
communication,0.02197,-0.60449,0.78955,0.0,1.0,1.0,2.0,0.0,3.0,3.0,4.0,-1.5,-1.125,0.3125,-0.18689,0.04736,0.32056,-0.92743,-0.01465,-0.65479,0.75635,0.0,0.0,-2.0,-2.0,-3.0,5.0,4.0,-10.0,-16.125,0.9375,9.6875,-0.17719,0.05481,0.33673,-0.92316,0.03174,-0.69971,0.75391,4.0,4.0,6.0,20.0,21.0,22.0,6.0,5.0,-25.875,99.1875,-10.375,-0.18744,0.12201,0.37268,-0.90063,-0.33154,-0.79102,0.51953,0.0,-6.0,-6.0,-5.0,-8.0,-13.0,-20.0,-10.0,-13.8125,-84.1875,8.75,-0.24457,0.24457,0.37817,-0.8587
communication,0.02393,-0.57764,0.79346,-3.0,-5.0,-5.0,-4.0,-5.0,-3.0,1.0,0.0,-2.0625,2.125,-0.0625,0.78448,-0.24945,-0.185,0.53674,-0.05029,-0.60693,0.771,1.0,6.0,-1.0,4.0,7.0,10.0,19.0,0.0,-15.625,1.9375,-1.25,0.78375,-0.26093,-0.18622,0.53192,0.02783,-0.67529,0.9209,-2.0,-12.0,-6.0,5.0,2.0,2.0,4.0,0.0,-17.5625,139.0625,-16.5625,0.78406,-0.32776,-0.1618,0.50159,-0.38086,-0.70068,0.46143,2.0,0.0,-4.0,-9.0,-7.0,-10.0,-11.0,37.0,-24.875,-112.8125,2.8125,0.7738,-0.44946,-0.05127,0.4433
communication,0.03418,-0.57178,0.81299,-3.0,1.0,5.0,3.0,5.0,5.0,0.0,-4.0,0.75,-1.6875,-1.25,0.22308,-0.0567,-0.29919,0.92603,0.0,0.0,0.0,3.0,0.0,-2.0,-4.0,-5.0,0.0,1.0,33.0,0.0,0.0,0.0,0.0,0.0,0.0,0.0,0.0,0.0,0.0,1.0,2.0,1.0,0.0,3.0,-13.0,4.0,3.0,0.0,0.0,0.0,0.0,0.0,0.0,0.0,-0.45752,-0.69678,0.46143,-2.0,0.0,-1.0,-4.0,-16.0,-24.0,-15.0,-14.0,-8.4375,91.8125,-29.6875,0.27185,-0.33466,-0.32678,0.841
communication,0.15771,-0.57178,0.77881,0.0,1.0,-1.0,-1.0,0.0,-1.0,-4.0,0.0,-4.25,-1.0,-0.9375,0.13019,-0.13519,0.28912,-0.93872,0.11768,-0.62207,0.77539,-1.0,1.0,3.0,1.0,3.0,2.0,4.0,12.0,-20.125,2.5,10.0625,0.13983,-0.13153,0.31848,-0.92828,0.0,0.0,0.0,-1.0,-5.0,-5.0,-19.0,-27.0,-4.0,1.0,1.0,0.0,0.0,0.0,0.0,0.0,0.0,0.0,-0.41211,-0.72656,0.44336,-2.0,0.0,-1.0,-5.0,-6.0,-4.0,4.0,9.0,-22.9375,-87.1875,-14.25,0.06116,0.12952,0.45923,-0.87671
deaf,-0.00537,-0.57861,0.81152,-1.0,-1.0,-3.0,-7.0,-9.0,-7.0,-2.0,-6.0,-0.3125,-0.375,-0.3125,0.78827,-0.25433,-0.17145,0.53339,0.00879,-0.58154,0.8125,-1.0,-2.0,-3.0,-7.0,-5.0,-4.0,-3.0,-7.0,-0.75,-0.5,0.9375,0.78802,-0.25421,-0.17163,0.53369,0.0,0.0,0.0,0.0,1.0,5.0,0.0,2.0,3.0,2.0,-1.0,0.0,0.0,0.0,0.0,0.0,0.0,0.0,0.00244,-0.58887,0.80029,-1.0,1.0,3.0,1.0,3.0,6.0,7.0,1.0,-2.375,-4.25,1.1875,0.78137,-0.25513,-0.18298,0.53925
deaf,-0.01563,-0.60254,0.79932,0.0,-1.0,0.0,-5.0,-4.0,-4.0,1.0,3.0,-0.3125,-0.375,-0.6875,-0.56177,0.19568,0.25189,-0.76337,-0.01611,-0.60205,0.79004,-1.0,0.0,-2.0,-1.0,1.0,-1.0,-1.0,0.0,0.0625,-0.375,3.4375,-0.56012,0.19604,0.25177,-0.76453,0.00146,-0.63037,0.82178,-1.0,-1.0,-3.0,-3.0,2.0,1.0,0.0,2.0,5.0,-6.1875,5.1875,-0.55475,0.19012,0.25024,-0.77045,-9.8E-4,-0.60352,0.79053,-1.0,-4.0,-6.0,-8.0,-7.0,-1.0,0.0,-3.0,1.8125,6.0625,2.875,-0.55212,0.19122,0.258,-0.76947
deaf,-0.04785,-0.57715,0.79785,2.0,3.0,4.0,8.0,5.0,0.0,-3.0,0.0,0.0625,0.1875,0.625,0.94769,-0.30548,0.05237,-0.07605,-0.04199,-0.58008,0.79492,-1.0,-1.0,-4.0,-1.0,-1.0,0.0,1.0,2.0,1.0,-2.8125,0.75,0.9483,-0.30426,0.05017,-0.07477,-0.03809,-0.57666,0.79834,-1.0,0.0,-1.0,0.0,0.0,-1.0,1.0,0.0,-1.3125,0.75,-3.8125,0.94702,-0.30664,0.04596,-0.08362,-0.02295,-0.57715,0.78662,-1.0,-1.0,-4.0,-1.0,-1.0,-3.0,2.0,-1.0,-5.125,0.9375,-6.8125,0.94434,-0.3114,0.04401,-0.09656
deaf,-0.05713,-0.61084,0.79053,0.0,1.0,2.0,6.0,6.0,1.0,-3.0,-4.0,-0.6875,-1.6875,-1.75,-0.43579,0.17749,0.27374,-0.83887,-0.05664,-0.62549,0.80273,-2.0,0.0,-1.0,-5.0,-1.0,3.0,2.0,-4.0,0.875,-3.0625,3.1875,-0.43317,0.1767,0.27295,-0.84064,-0.0498,-0.59766,0.79297,0.0,1.0,6.0,8.0,6.0,3.0,3.0,1.0,0.3125,1.5625,-0.625,-0.435,0.17725,0.27612,-0.83856,-0.05566,-0.62158,0.80176,0.0,-1.0,-1.0,1.0,5.0,6.0,3.0,-1.0,1.25,-4.5625,-1.0625,-0.43927,0.17303,0.276,-0.83728
deaf,-0.0625,-0.54639,0.82861,0.0,0.0,0.0,0.0,0.0,0.0,0.0,0.0,-1.125,0.3125,0.625,0.63837,-0.21503,-0.19299,0.71338,0.0,0.0,0.0,-2.0,-4.0,-9.0,-9.0,-7.0,-6.0,-5.0,-3.0,0.0,0.0,0.0,0.0,0.0,0.0,0.0,0.0,0.0,0.0,0.0,-2.0,-1.0,-6.0,-3.0,5.0,1.0,1.0,0.0,0.0,0.0,0.0,0.0,0.0,0.0,0.0,0.0,0.0,-1.0,0.0,-3.0,-5.0,-5.0,-1.0,0.0,-1.0,0.0,0.0,0.0,0.0,0.0,0.0,0.0
deaf,-0.08008,-0.56104,0.81934,-1.0,1.0,4.0,6.0,3.0,3.0,-1.0,-12.0,-0.75,0.0625,-0.125,0.6911,-0.24445,-0.17389,0.65753,0.0,0.0,0.0,-1.0,-2.0,-5.0,-9.0,-10.0,-2.0,1.0,-2.0,0.0,0.0,0.0,0.0,0.0,0.0,0.0,-0.08154,-0.56689,0.8252,1.0,1.0,1.0,3.0,0.0,7.0,2.0,-1.0,-1.0625,-2.4375,0.6875,0.6897,-0.24347,-0.17584,0.65887,-0.07031,-0.56152,0.82178,0.0,-3.0,-9.0,-9.0,-10.0,-3.0,-2.0,-1.0,-0.9375,-1.1875,-2.75,0.68927,-0.24109,-0.17853,0.65942
deaf,-0.08447,-0.60059,0.79248,0.0,2.0,2.0,6.0,7.0,2.0,1.0,0.0,-1.6875,1.4375,-5.5,0.61041,-0.172,0.27319,-0.72333,-0.08691,-0.60742,0.79541,1.0,1.0,5.0,6.0,5.0,3.0,1.0,4.0,-4.375,-1.0,-7.4375,0.60199,-0.1767,0.27386,-0.729,-0.05908,-0.59473,0.75586,1.0,1.0,1.0,2.0,1.0,0.0,-1.0,0.0,-4.625,4.8125,-6.6875,0.59192,-0.17914,0.27875,-0.73474,-0.05859,-0.61035,0.771,0.0,-2.0,-4.0,-7.0,-7.0,-3.0,1.0,2.0,3.75,-0.0625,-4.1875,0.586,-0.17804,0.27753,-0.74017
deaf,-0.10303,-0.56885,0.81348,-3.0,-3.0,-4.0,-4.0,-5.0,-4.0,-2.0,-2.0,0.0,0.4375,-0.0625,0.68951,-0.25427,-0.17084,0.65625,-0.08154,-0.55957,0.80811,1.0,3.0,2.0,5.0,11.0,8.0,4.0,4.0,-1.1875,2.0,1.5,0.68903,-0.25494,-0.17023,0.65668,0.0,0.0,0.0,0.0,-2.0,-2.0,-6.0,-5.0,-2.0,-2.0,0.0,0.0,0.0,0.0,0.0,0.0,0.0,0.0,-0.09229,-0.57471,0.81055,0.0,1.0,-1.0,2.0,2.0,-1.0,0.0,3.0,-1.0,0.1875,-0.0625,0.68921,-0.25464,-0.17584,0.65509
deaf,-0.10645,-0.53223,0.82275,0.0,-5.0,-6.0,-3.0,-6.0,-7.0,-4.0,0.0,0.3125,1.4375,0.5625,0.95502,-0.28448,0.03223,0.07715,-0.1084,-0.53613,0.81982,0.0,-2.0,0.0,3.0,1.0,0.0,-2.0,-1.0,0.8125,-0.9375,-1.4375,0.95496,-0.2851,0.03314,0.07477,-0.08154,-0.53613,0.83252,0.0,0.0,1.0,-2.0,-2.0,2.0,0.0,0.0,1.8125,-0.875,-3.125,0.95685,-0.28174,0.02789,0.06494,-0.07422,-0.53369,0.81934,0.0,1.0,3.0,4.0,5.0,2.0,0.0,-4.0,-1.9375,-0.6875,-4.8125,0.95801,-0.28052,0.02246,0.05432
deaf,-0.1167,-0.60449,0.78418,1.0,0.0,0.0,-2.0,0.0,1.0,2.0,2.0,0.3125,-0.1875,-0.0625,-0.79816,0.30481,0.11823,-0.50604,-0.11572,-0.60791,0.79102,1.0,2.0,-2.0,-3.0,-1.0,-1.0,-1.0,0.0,0.3125,-1.375,0.8125,-0.79797,0.30426,0.11859,-0.50659,-0.12158,-0.60889,0.78662,0.0,2.0,-1.0,-1.0,-1.0,-1.0,-2.0,-2.0,-1.8125,-2.3125,-0.0625,-0.79755,0.3031,0.12329,-0.5069,-0.10352,-0.59912,0.78027,-4.0,-5.0,-2.0,-3.0,-2.0,-3.0,-1.0,-2.0,-1.0,1.125,-4.5625,-0.79901,0.30341,0.1236,-0.50421
deaf,-0.12549,-0.60107,0.7876,-1.0,2.0,5.0,7.0,2.0,5.0,-3.0,1.0,0.125,0.125,-0.375,0.02118,0.05804,0.31793,-0.94611,-0.11426,-0.60742,0.78857,-1.0,3.0,5.0,2.0,3.0,6.0,-1.0,-4.0,-3.125,-3.1875,-2.75,0.01868,0.05457,0.32019,-0.94562,-0.08643,-0.61426,0.79834,0.0,0.0,-2.0,-1.0,1.0,2.0,7.0,2.0,-2.8125,1.625,-7.3125,0.01068,0.04718,0.32471,-0.94458,-0.08545,-0.62354,0.77979,-1.0,1.0,3.0,1.0,2.0,3.0,4.0,2.0,-0.3125,-1.75,-1.625,-0.00134,0.04315,0.3288,-0.94342
deaf,-0.14551,0.76465,0.64063,-6.0,7.0,17.0,12.0,3.0,1.0,-1.0,-5.0,0.4375,0.6875,1.4375,-0.55829,-0.20081,-0.3739,-0.71295,-0.21631,0.87598,0.63232,-4.0,-24.0,-21.0,-7.0,-5.0,-5.0,-5.0,-3.0,17.5,21.375,-22.5,-0.55463,-0.20117,-0.38336,-0.71069,-0.56104,0.73584,0.41553,-11.0,1.0,2.0,-2.0,-4.0,4.0,-21.0,-9.0,42.125,104.75,-75.25,-0.56189,-0.04895,-0.5791,-0.58875,-0.74805,0.58154,-0.00488,-20.0,-11.0,-9.0,-9.0,-7.0,1.0,-29.0,-45.0,-16.875,63.1875,-15.75,-0.47241,0.11218,-0.71387,-0.5047
deaf,-0.14697,-0.59326,0.77734,0.0,0.0,0.0,0.0,0.0,0.0,0.0,0.0,-1.375,0.5,-0.875,0.92694,-0.29633,0.13831,-0.18378,-0.1416,-0.59766,0.7876,-7.0,-5.0,-7.0,-9.0,-11.0,-6.0,-2.0,-16.0,-1.4375,-1.3125,-1.3125,0.92572,-0.29919,0.1377,-0.18597,-0.12402,-0.60352,0.78076,-9.0,-5.0,-3.0,-7.0,-8.0,-9.0,-18.0,-16.0,-2.0625,0.25,-7.8125,0.92316,-0.30353,0.13232,-0.19537,-0.10547,-0.62646,0.771,-2.0,-4.0,-1.0,0.0,-2.0,-5.0,-5.0,-14.0,-0.875,-0.9375,-2.375,0.91913,-0.30774,0.12726,-0.21051
deaf,-0.1875,-0.59033,0.77783,1.0,0.0,-2.0,2.0,0.0,2.0,1.0,-2.0,1.3125,0.1875,0.375,0.5896,-0.26782,-0.18317,0.73962,0.0,0.0,0.0,-3.0,-2.0,-3.0,-4.0,-4.0,-1.0,-1.0,7.0,0.0,0.0,0.0,0.0,0.0,0.0,0.0,-0.18018,-0.58887,0.78271,-1.0,-2.0,0.0,-2.0,0.0,5.0,3.0,0.0,1.1875,-2.0,0.875,0.5871,-0.26544,-0.18463,0.74213,0.0,0.0,0.0,-1.0,-1.0,2.0,1.0,3.0,3.0,2.0,-1.0,0.0,0.0,0.0,0.0,0.0,0.0,0.0
deaf,-0.21973,0.7749,0.60596,-5.0,-15.0,-8.0,-4.0,0.0,1.0,1.0,1.0,-6.4375,0.75,1.625,-0.55664,-0.362,0.25134,0.70422,-0.07617,0.76709,0.69775,1.0,10.0,2.0,-3.0,-6.0,-7.0,-8.0,-10.0,-16.1875,-24.8125,27.9375,-0.5907,-0.30029,0.26935,0.69879,-0.31885,0.76221,0.68604,-12.0,2.0,0.0,3.0,9.0,5.0,2.0,-6.0,51.4375,77.375,-75.9375,-0.55804,-0.35406,0.22614,0.71558,-0.73291,0.62109,0.31006,-1.0,-3.0,-7.0,-13.0,-6.0,-8.0,-18.0,16.0,26.75,208.5,-65.3125,-0.44263,-0.63721,0.04205,0.62952
deaf,-0.22461,0.75293,0.63477,-2.0,3.0,-6.0,-4.0,0.0,-1.0,-4.0,-5.0,-0.375,-0.4375,0.9375,0.21564,0.21185,-0.36877,-0.87903,-0.38525,0.84863,0.61084,-3.0,9.0,13.0,13.0,8.0,4.0,10.0,17.0,20.3125,69.0,-23.875,0.20917,0.26178,-0.37103,-0.86609,-0.68408,0.68604,0.24512,13.0,10.0,6.0,-4.0,-4.0,-4.0,-9.0,-6.0,33.75,126.5,-45.9375,0.16016,0.55145,-0.33875,-0.7453,-0.76465,0.59229,-0.10986,11.0,21.0,16.0,-1.0,-2.0,-4.0,-5.0,-61.0,-9.875,-11.75,-27.75,0.15942,0.67755,-0.29413,-0.65503
deaf,-0.22656,0.75293,0.6167,-14.0,-10.0,5.0,3.0,-2.0,-1.0,-1.0,-2.0,-2.9375,-4.5,3.625,-0.55792,-0.34979,0.25012,0.70978,-0.21875,0.89697,0.72217,-4.0,-21.0,-31.0,-23.0,-22.0,-14.0,11.0,9.0,10.25,27.5625,-29.875,-0.55585,-0.34222,0.2627,0.71057,0.0,0.0,0.0,26.0,20.0,1.0,-3.0,1.0,3.0,9.0,-5.0,0.0,0.0,0.0,0.0,0.0,0.0,0.0,-0.71875,0.5376,-0.04736,1.0,-7.0,-7.0,0.0,14.0,6.0,9.0,-7.0,-6.1875,79.9375,-39.5625,-0.38965,-0.7417,-0.03027,0.54517
deaf,-0.229,0.80518,0.6001,-6.0,-6.0,-6.0,1.0,-3.0,-1.0,0.0,2.0,2.8125,0.625,-1.375,-0.55652,-0.36774,0.26056,0.69794,0.0,0.0,0.0,-1.0,-1.0,-12.0,1.0,1.0,0.0,1.0,7.0,0.0,0.0,0.0,0.0,0.0,0.0,0.0,-0.21484,0.95557,0.71826,13.0,16.0,14.0,4.0,14.0,16.0,48.0,23.0,4.4375,54.125,-43.3125,-0.57214,-0.32916,0.28271,0.69598,-0.73486,0.56494,0.17236,-6.0,1.0,19.0,6.0,7.0,-1.0,-4.0,-11.0,30.4375,151.125,-60.25,-0.42285,-0.67029,0.04236,0.6084
deaf,-0.2417,0.80957,0.54883,-38.0,-20.0,-7.0,-3.0,-4.0,-3.0,-5.0,10.0,-1.5,-1.625,0.5,-0.58337,-0.40405,0.24915,0.65906,-0.25244,0.85693,0.57617,5.0,34.0,17.0,5.0,-1.0,-1.0,-9.0,-5.0,0.875,-5.4375,-5.3125,-0.5827,-0.39508,0.25378,0.66327,-0.53516,0.86475,0.50098,15.0,16.0,-1.0,-7.0,-6.0,-3.0,0.0,11.0,23.6875,96.75,-84.1875,-0.52197,-0.48932,0.17725,0.67578,-0.7251,0.59326,0.1377,-19.0,-6.0,-5.0,-3.0,2.0,-9.0,-23.0,-28.0,19.25,125.1875,-52.375,-0.42169,-0.68262,0.01709,0.59662
deaf,-0.26758,0.70508,0.64111,0.0,0.0,0.0,0.0,0.0,0.0,0.0,0.0,2.5,-10.25,-4.125,-0.90381,-0.39294,-0.16803,-0.02502,-0.36328,0.68848,0.60693,0.0,0.0,0.0,0.0,0.0,0.0,0.0,0.0,46.5625,-27.75,-16.0,-0.90259,-0.4068,-0.14026,0.01563,-0.354,0.72461,0.57422,22.0,41.0,14.0,2.0,4.0,7.0,-1.0,10.0,14.5,6.0625,-59.125,-0.88147,-0.4375,-0.15271,0.09161,-0.37646,0.77344,0.60742,37.0,37.0,19.0,-3.0,-14.0,-7.0,-14.0,8.0,-64.75,4.8125,-10.875,-0.87213,-0.42902,-0.19476,0.1322
deaf,-0.27734,0.68896,0.68701,-20.0,2.0,5.0,5.0,1.0,-7.0,-6.0,-6.0,0.5,-1.5625,-0.6875,-0.23364,0.05597,-0.39551,-0.88654,0.0,0.0,0.0,9.0,-23.0,-19.0,-4.0,2.0,3.0,8.0,1.0,0.0,0.0,0.0,0.0,0.0,0.0,0.0,-0.33447,0.79004,0.5498,-34.0,-26.0,-8.0,-2.0,1.0,-3.0,-4.0,-33.0,27.6875,-21.4375,-30.4375,-0.3056,0.02875,-0.47174,-0.82666,-0.7793,0.73096,0.19385,-51.0,-35.0,-19.0,-4.0,0.0,-14.0,-9.0,-23.0,-124.4375,-63.1875,-58.375,-0.38922,0.05225,-0.40552,-0.8255
deaf,-0.29004,0.6958,0.67285,18.0,3.0,2.0,0.0,-2.0,-4.0,-4.0,-21.0,-0.25,-4.0625,-0.8125,-0.28418,0.03809,-0.41248,-0.86475,-0.30518,0.70117,0.66357,-6.0,-11.0,-1.0,-6.0,-10.0,-4.0,47.0,29.0,33.75,-8.3125,-13.3125,-0.29639,0.02362,-0.42145,-0.85681,0.0,0.0,0.0,-21.0,-61.0,-13.0,-4.0,-5.0,-1.0,10.0,-22.0,0.0,0.0,0.0,0.0,0.0,0.0,0.0,-0.14307,0.89209,0.70605,-15.0,-3.0,-6.0,-40.0,-8.0,-10.0,-36.0,-25.0,-58.0,17.5625,20.5,-0.39069,-0.00482,-0.46466,-0.79468
deaf,-0.36182,0.68652,0.65479,19.0,3.0,5.0,4.0,5.0,4.0,7.0,22.0,-1.1875,-5.8125,-5.4375,-0.90668,-0.37732,-0.18561,0.03491,-0.29785,0.67529,0.68018,-16.0,-11.0,-19.0,-12.0,-14.0,-8.0,-12.0,4.0,21.3125,-20.0625,-11.875,-0.90302,-0.39014,-0.1665,0.06879,-0.40576,0.79004,0.59229,25.0,-4.0,-11.0,-5.0,-7.0,-4.0,1.0,-22.0,20.5625,-8.875,-37.875,-0.88422,-0.42535,-0.15326,0.11755,0.0,0.0,0.0,25.0,33.0,20.0,-6.0,-19.0,-12.0,6.0,7.0,0.0,0.0,0.0,0.0,0.0,0.0,0.0
deaf,-0.36719,0.64502,0.68701,-4.0,-4.0,1.0,4.0,4.0,-1.0,-3.0,0.0,-0.8125,-2.1875,-1.1875,-0.19775,0.12463,-0.38232,-0.89404,-0.3916,0.60742,0.65771,-20.0,-37.0,-11.0,-6.0,2.0,7.0,40.0,14.0,44.25,1.8125,-10.6875,-0.2052,0.1225,-0.39307,-0.88794,-0.44678,0.83936,0.63135,31.0,-28.0,1.0,8.0,3.0,1.0,14.0,14.0,29.3125,0.75,-58.75,-0.25098,0.11243,-0.44287,-0.85339,-0.52051,0.71387,0.48779,-3.0,-20.0,-1.0,7.0,-6.0,-22.0,40.0,46.0,-1.5,-5.6875,-38.25,-0.31689,0.13837,-0.47229,-0.81085
deaf,-0.50146,0.83643,0.03027,-6.0,0.0,-5.0,-2.0,-1.0,-5.0,-4.0,-2.0,2.875,-24.125,-6.75,-0.01917,0.35992,-0.5976,-0.71625,-0.69238,0.85449,0.16553,13.0,16.0,4.0,5.0,13.0,30.0,25.0,19.0,20.8125,-103.25,-60.4375,-0.15826,0.28577,-0.5813,-0.7453,-0.81689,0.69238,0.14648,-8.0,-13.0,-15.0,-6.0,-7.0,15.0,-15.0,-5.0,20.3125,35.6875,-60.0,-0.28888,0.3067,-0.59155,-0.68744,-0.78369,0.55811,-0.04199,-16.0,-12.0,3.0,11.0,7.0,4.0,12.0,-22.0,5.4375,12.5625,-39.1875,-0.28796,0.3894,-0.6153,-0.62207
deaf,-0.51953,0.84961,0.0874,-4.0,-6.0,-4.0,2.0,-2.0,-3.0,1.0,5.0,0.6875,-6.5,-2.75,-0.11273,0.26794,-0.6264,-0.72333,-0.56104,0.81104,0.23193,11.0,11.0,4.0,-1.0,-7.0,-4.0,2.0,-6.0,2.6875,-91.8125,-42.6875,-0.21667,0.18848,-0.60358,-0.74384,0.0,0.0,0.0,0.0,0.0,0.0,0.0,0.0,0.0,0.0,0.0,0.0,0.0,0.0,0.0,0.0,0.0,0.0,-0.79297,0.56201,-0.06592,2.0,17.0,13.0,-2.0,2.0,-6.0,-10.0,-10.0,29.1875,37.625,-28.0,-0.35315,0.30725,-0.67841,-0.56635
deaf,-0.53516,0.86523,0.02588,4.0,9.0,18.0,4.0,8.0,-2.0,-2.0,4.0,3.0625,-4.8125,-3.4375,-9.2E-4,0.37018,-0.59271,-0.71533,-0.56348,0.79053,0.05518,0.0,-10.0,-15.0,-5.0,-2.0,-3.0,-2.0,-3.0,27.4375,-78.25,-29.375,-0.07153,0.32922,-0.60242,-0.72363,-0.75879,0.78906,0.15088,13.0,-2.0,7.0,10.0,5.0,-1.0,24.0,4.0,31.375,-3.875,-71.3125,-0.23334,0.28516,-0.59338,-0.71564,-0.80859,0.5957,-0.04053,14.0,24.0,13.0,-3.0,1.0,3.0,-7.0,-37.0,9.9375,42.75,-39.5,-0.26605,0.38196,-0.60828,-0.64294
deaf,-0.54834,0.81055,0.14063,-4.0,3.0,0.0,-5.0,-1.0,0.0,1.0,-1.0,3.6875,-84.875,-20.625,-0.09558,0.30103,-0.59003,-0.7431,-0.78857,0.85352,0.25879,-2.0,2.0,1.0,-3.0,-3.0,-3.0,6.0,-36.0,29.6875,-26.8125,-75.5625,-0.25848,0.23694,-0.56757,-0.745,-0.83301,0.53564,0.04443,-1.0,10.0,11.0,9.0,7.0,1.0,-4.0,-68.0,24.25,73.1875,-34.5625,-0.32111,0.34821,-0.61115,-0.63422,-0.69629,0.61133,-0.00342,2.0,11.0,11.0,-4.0,-6.0,1.0,-3.0,7.0,-31.5,-83.375,-23.5625,-0.3266,0.40161,-0.60529,-0.6048
deaf,-0.55469,0.86279,-0.00732,-13.0,-9.0,-2.0,-2.0,0.0,0.0,-4.0,-10.0,2.875,-4.75,-0.125,-4.9E-4,0.38245,-0.59613,-0.70599,0.0,0.0,0.0,8.0,5.0,-5.0,-4.0,-1.0,-1.0,0.0,0.0,0.0,0.0,0.0,0.0,0.0,0.0,0.0,-0.72949,0.8291,0.14453,27.0,20.0,8.0,-2.0,12.0,9.0,10.0,30.0,6.8125,-17.3125,-59.1875,-0.21082,0.26337,-0.60608,-0.7204,-0.7832,0.64111,-0.00391,-5.0,-11.0,-6.0,1.0,3.0,-4.0,-5.0,-35.0,4.4375,55.0625,-40.5,-0.25433,0.35126,-0.6123,-0.66113
deaf,-0.5708,0.84521,0.05957,10.0,8.0,2.0,3.0,3.0,1.0,3.0,8.0,-0.375,-1.125,-1.875,-0.67395,-0.37402,-0.5722,-0.28033,-0.57275,0.83691,0.06787,-7.0,-1.0,2.0,0.0,1.0,3.0,2.0,-4.0,4.5,-2.0625,-3.3125,-0.67554,-0.37531,-0.57336,-0.27228,-0.52588,0.78711,0.12158,-25.0,-32.0,-5.0,-1.0,-5.0,-4.0,-8.0,-7.0,14.3125,-65.4375,-23.0,-0.69476,-0.38544,-0.55615,-0.24408,-0.84033,0.69775,0.07617,1.0,10.0,8.0,4.0,5.0,-8.0,-15.0,-3.0,42.8125,16.375,-75.0625,-0.73755,-0.39294,-0.54553,-0.06427
deaf,-0.57568,0.83301,0.06299,-16.0,-11.0,-12.0,-5.0,-8.0,-6.0,-1.0,-8.0,4.125,-8.6875,-4.375,-0.66016,-0.34558,-0.59076,-0.30969,-0.62354,0.76074,0.15771,6.0,0.0,1.0,0.0,0.0,0.0,4.0,-1.0,7.375,-107.8125,-31.6875,-0.73438,-0.375,-0.51788,-0.22797,-0.79004,0.74707,0.2041,12.0,-14.0,-4.0,-1.0,-5.0,-4.0,-12.0,-10.0,40.4375,31.9375,-55.9375,-0.77557,-0.38605,-0.49603,-0.05896,0.0,0.0,0.0,-3.0,0.0,0.0,-2.0,-9.0,1.0,-3.0,5.0,0.0,0.0,0.0,0.0,0.0,0.0,0.0
deaf,-0.58057,0.83496,0.0542,2.0,5.0,3.0,2.0,2.0,0.0,0.0,3.0,-0.5,0.75,0.0,-0.04504,0.35895,-0.58905,-0.7226,-0.53174,0.75342,0.12744,0.0,-5.0,-15.0,-4.0,0.0,3.0,7.0,21.0,20.8125,-94.25,-34.0625,-0.09399,0.32794,-0.58887,-0.73273,-0.82324,0.81641,0.16016,-7.0,-16.0,-1.0,0.0,1.0,7.0,-23.0,-4.0,46.3125,-64.625,-72.625,-0.26947,0.25171,-0.58221,-0.72467,-0.77002,0.53125,0.01611,-2.0,-1.0,-2.0,6.0,1.0,2.0,-10.0,-8.0,15.375,97.9375,-46.6875,-0.32043,0.3653,-0.60895,-0.62701
deaf,-0.58936,0.83008,0.03711,0.0,-1.0,3.0,-5.0,-7.0,-5.0,2.0,-2.0,1.25,-3.875,-3.9375,-0.66858,-0.37067,-0.58386,-0.2735,-0.55664,0.7627,0.14063,-46.0,-40.0,-12.0,-3.0,-2.0,1.0,-3.0,-21.0,14.125,-114.0625,-23.375,-0.71381,-0.39435,-0.53418,-0.22321,0.0,0.0,0.0,-13.0,-34.0,-19.0,-4.0,2.0,-4.0,17.0,29.0,0.0,0.0,0.0,0.0,0.0,0.0,0.0,-0.8042,0.55859,-0.04492,9.0,6.0,3.0,3.0,-3.0,-12.0,6.0,23.0,36.25,70.4375,-47.1875,-0.68524,-0.41467,-0.59845,0.02173
deaf,-0.58984,0.82227,0.02051,-4.0,-10.0,-21.0,-12.0,-14.0,-7.0,0.0,0.0,6.375,-12.4375,-6.4375,-0.66443,-0.38208,-0.5885,-0.25763,-0.55029,0.77783,0.11523,1.0,6.0,-3.0,1.0,0.0,-2.0,-1.0,8.0,1.375,-73.9375,-18.4375,-0.71216,-0.39423,-0.54364,-0.2049,-0.92383,0.75488,0.18799,0.0,-17.0,-26.0,-10.0,-4.0,6.0,24.0,29.0,53.0625,-62.6875,-84.25,-0.80621,-0.39679,-0.43878,-0.01239,-0.87158,0.48828,0.0791,4.0,0.0,-2.0,3.0,4.0,2.0,6.0,-6.0,29.625,106.1875,-30.4375,-0.69409,-0.43457,-0.5672,0.08826
deaf,0.0,0.0,0.0,-1.0,0.0,-1.0,-1.0,0.0,1.0,1.0,0.0,0.0,0.0,0.0,0.0,0.0,0.0,0.0,0.0,0.0,0.0,0.0,1.0,2.0,2.0,4.0,-2.0,-1.0,2.0,0.0,0.0,0.0,0.0,0.0,0.0,0.0,0.0332,-0.57666,0.81836,1.0,-1.0,0.0,-3.0,0.0,0.0,-3.0,4.0,-1.1875,-2.9375,5.75,0.22638,-0.05444,-0.30139,0.92462,0.02539,-0.57764,0.80518,0.0,-1.0,-1.0,1.0,-2.0,-3.0,0.0,-2.0,-2.5,1.0,-2.5,0.22247,-0.05292,-0.30548,0.92432
deaf,0.0,0.0,0.0,-10.0,-1.0,14.0,9.0,2.0,-1.0,-3.0,0.0,0.0,0.0,0.0,0.0,0.0,0.0,0.0,0.0,0.0,0.0,-6.0,19.0,14.0,15.0,13.0,1.0,-7.0,-18.0,0.0,0.0,0.0,0.0,0.0,0.0,0.0,-0.68262,0.68262,0.41553,-3.0,13.0,5.0,-2.0,-7.0,-6.0,-9.0,15.0,53.125,178.375,-98.0625,-0.39966,-0.58258,0.13715,0.69427,0.0,0.0,0.0,0.0,0.0,0.0,0.0,0.0,0.0,0.0,0.0,0.0,0.0,0.0,0.0,0.0,0.0,0.0
deaf,0.0,0.0,0.0,-2.0,-3.0,-5.0,-7.0,-3.0,0.0,-2.0,-2.0,0.0,0.0,0.0,0.0,0.0,0.0,0.0,-0.06201,-0.52539,0.84375,-3.0,1.0,0.0,-2.0,-4.0,-1.0,-1.0,-2.0,-0.4375,0.125,0.5,0.58459,-0.19379,-0.20203,0.76147,-0.06592,-0.5332,0.84229,-7.0,-4.0,-5.0,-4.0,-1.0,-9.0,-4.0,-11.0,-1.0,-0.625,-0.4375,0.58447,-0.19391,-0.20178,0.7616,-0.06006,-0.54053,0.84277,-3.0,-1.0,-1.0,3.0,4.0,2.0,1.0,2.0,-0.5,-0.4375,-0.75,0.58508,-0.19464,-0.20197,0.76086
deaf,0.0,0.0,0.0,-2.0,-4.0,-4.0,-2.0,-2.0,-2.0,0.0,0.0,0.0,0.0,0.0,0.0,0.0,0.0,0.0,0.01172,-0.55908,0.81934,1.0,-6.0,-5.0,-3.0,0.0,3.0,4.0,2.0,1.25,-0.6875,0.125,0.91833,-0.28442,0.07526,-0.26459,0.01758,-0.54639,0.81299,-2.0,-3.0,-3.0,-2.0,-8.0,-4.0,-2.0,2.0,-2.125,1.3125,-5.0625,0.91534,-0.28906,0.07391,-0.27032,0.0,0.0,0.0,0.0,0.0,0.0,0.0,0.0,0.0,0.0,0.0,0.0,0.0,0.0,0.0,0.0,0.0,0.0
deaf,0.0,0.0,0.0,-2.0,0.0,-2.0,-1.0,-5.0,-6.0,-1.0,-4.0,0.0,0.0,0.0,0.0,0.0,0.0,0.0,-0.08447,-0.6123,0.78613,-3.0,-3.0,-5.0,-6.0,-7.0,-6.0,-4.0,-11.0,-0.9375,0.9375,0.3125,-0.789,0.29315,0.14063,-0.52136,-0.08301,-0.60205,0.78467,0.0,0.0,1.0,1.0,0.0,3.0,0.0,2.0,-0.375,-1.8125,-1.9375,-0.78894,0.29382,0.14325,-0.52032,-0.07471,-0.60938,0.78662,-3.0,-1.0,0.0,-1.0,0.0,1.0,1.0,10.0,1.3125,0.9375,0.5,-0.79016,0.2934,0.14423,-0.51843
deaf,0.0,0.0,0.0,-3.0,1.0,2.0,3.0,0.0,-9.0,-4.0,-8.0,0.0,0.0,0.0,0.0,0.0,0.0,0.0,0.0,0.0,0.0,-2.0,-1.0,-3.0,-2.0,-1.0,-4.0,-2.0,-3.0,0.0,0.0,0.0,0.0,0.0,0.0,0.0,-0.00195,-0.57178,0.81152,-1.0,-1.0,-2.0,-6.0,-8.0,-7.0,-3.0,-5.0,1.125,-5.9375,-10.8125,0.89612,-0.28119,0.11456,-0.32361,0.01807,-0.58008,0.81494,-1.0,-2.0,-1.0,-3.0,-6.0,-3.0,3.0,0.0,-6.0,-3.25,-14.25,0.88574,-0.29547,0.09924,-0.34399
deaf,0.0,0.0,0.0,-6.0,-14.0,-11.0,-7.0,-6.0,-5.0,-4.0,0.0,0.0,0.0,0.0,0.0,0.0,0.0,0.0,-0.37012,0.89014,0.65576,7.0,11.0,-2.0,-12.0,-10.0,4.0,14.0,13.0,28.0625,44.875,-26.75,-0.52313,-0.37915,0.25604,0.71906,0.0,0.0,0.0,-9.0,-26.0,-15.0,-7.0,-2.0,-1.0,-3.0,-25.0,0.0,0.0,0.0,0.0,0.0,0.0,0.0,0.0,0.0,0.0,-5.0,15.0,13.0,11.0,4.0,7.0,0.0,-35.0,0.0,0.0,0.0,0.0,0.0,0.0,0.0
deaf,0.0,0.0,0.0,-7.0,-3.0,0.0,-4.0,-1.0,-1.0,-2.0,6.0,0.0,0.0,0.0,0.0,0.0,0.0,0.0,-0.04492,0.81885,0.64307,1.0,-2.0,-11.0,-8.0,-3.0,-1.0,5.0,16.0,9.0,2.5625,-1.0,-0.86774,-0.40845,-0.12311,-0.25525,-0.39453,0.8418,0.52881,-3.0,-14.0,-10.0,-2.0,-3.0,-4.0,4.0,26.0,39.75,117.0625,-86.375,-0.84308,-0.39734,-0.30048,-0.20282,-0.64893,0.65088,0.14453,-15.0,-25.0,-8.0,3.0,7.0,0.0,-2.0,-11.0,19.0625,108.6875,-38.3125,-0.70648,-0.34814,-0.59711,-0.15259
deaf,0.0,0.0,0.0,-8.0,1.0,5.0,-1.0,-1.0,0.0,1.0,0.0,0.0,0.0,0.0,0.0,0.0,0.0,0.0,-0.15674,0.82324,0.68848,7.0,11.0,10.0,12.0,3.0,-4.0,-17.0,-12.0,9.6875,32.5,-20.0,-0.83221,-0.34619,-0.21887,-0.3739,-0.47607,0.77783,0.55029,4.0,10.0,8.0,3.0,2.0,-7.0,-24.0,-7.0,42.1875,113.875,-65.3125,-0.79492,-0.31287,-0.41241,-0.31665,-0.69775,0.62695,0.0874,1.0,7.0,2.0,-4.0,-1.0,-7.0,0.0,2.0,11.125,127.625,-37.875,-0.65271,-0.21521,-0.67523,-0.26807
deaf,0.0,0.0,0.0,0.0,0.0,0.0,0.0,0.0,0.0,0.0,0.0,0.0,0.0,0.0,0.0,0.0,0.0,0.0,-0.57129,0.80957,0.16406,13.0,2.0,-3.0,-2.0,0.0,-1.0,8.0,16.0,11.125,-65.1875,-32.0625,-0.30554,0.1394,-0.64404,-0.68738,-0.7998,0.7666,0.15674,-24.0,-25.0,-11.0,4.0,4.0,6.0,6.0,-16.0,35.0625,-5.25,-58.0,-0.46204,0.08496,-0.63452,-0.61383,-0.80664,0.56934,-0.06885,-5.0,-6.0,-2.0,4.0,-2.0,-11.0,4.0,3.0,28.5,52.9375,-35.625,-0.44757,0.18317,-0.71906,-0.49921
deaf,0.0,0.0,0.0,0.0,0.0,0.0,0.0,0.0,0.0,0.0,0.0,0.0,0.0,0.0,0.0,0.0,0.0,0.0,0.0,0.0,0.0,-4.0,4.0,19.0,10.0,-2.0,-18.0,-35.0,-20.0,0.0,0.0,0.0,0.0,0.0,0.0,0.0,-0.33789,0.78467,0.56348,24.0,-50.0,1.0,8.0,9.0,-1.0,-18.0,-14.0,17.5,-22.25,-35.9375,-0.35895,-0.0163,-0.47266,-0.80475,-0.30957,0.87891,0.60742,20.0,49.0,23.0,-5.0,-42.0,-16.0,-28.0,-9.0,-41.0625,-2.8125,-1.5,-0.41522,-0.01599,-0.46899,-0.77942
deaf,0.0,0.0,0.0,0.0,0.0,0.0,0.0,0.0,0.0,0.0,0.0,0.0,0.0,0.0,0.0,0.0,0.0,0.0,0.02393,-0.62012,0.78564,-2.0,-2.0,-4.0,-5.0,-4.0,-1.0,1.0,2.0,0.125,-1.1875,4.5,-0.18188,0.05365,0.31903,-0.92859,0.00342,-0.60596,0.78906,2.0,-2.0,-2.0,-6.0,-7.0,-1.0,0.0,26.0,-1.875,-1.0,-3.25,-0.17871,0.05127,0.32166,-0.92847,0.0,0.0,0.0,0.0,-1.0,2.0,2.0,1.0,7.0,1.0,-9.0,0.0,0.0,0.0,0.0,0.0,0.0,0.0
deaf,0.0,0.0,0.0,1.0,2.0,3.0,-6.0,-4.0,-2.0,-5.0,-8.0,0.0,0.0,0.0,0.0,0.0,0.0,0.0,-0.44482,0.78076,0.06348,14.0,-12.0,-18.0,-7.0,-6.0,3.0,9.0,33.0,18.25,-90.5,-23.25,-0.05371,0.33832,-0.59674,-0.72571,-0.82373,0.88525,0.19141,-18.0,-16.0,-11.0,-7.0,-1.0,4.0,6.0,-13.0,30.3125,-61.6875,-75.4375,-0.27203,0.23608,-0.59247,-0.72064,-0.72803,0.46094,-0.05957,-20.0,-11.0,-8.0,-5.0,-21.0,-8.0,-4.0,-26.0,36.375,99.9375,-57.8125,-0.31543,0.38727,-0.64075,-0.58319
deaf,0.0,0.0,0.0,2.0,1.0,2.0,2.0,5.0,2.0,2.0,13.0,0.0,0.0,0.0,0.0,0.0,0.0,0.0,-0.1001,-0.57568,0.82422,0.0,1.0,-1.0,-3.0,3.0,1.0,1.0,8.0,-1.625,-1.0,-0.625,0.7287,-0.26331,-0.15747,0.61224,-0.09277,-0.57568,0.80273,1.0,0.0,1.0,7.0,4.0,2.0,0.0,2.0,-0.3125,-3.25,1.3125,0.72638,-0.26367,-0.16113,0.61383,-0.09912,-0.59131,0.79248,-3.0,-1.0,-1.0,-4.0,-1.0,-1.0,1.0,-2.0,1.5625,-5.25,-2.0625,0.72498,-0.26093,-0.16498,0.61566
deaf,0.0,0.0,0.0,20.0,20.0,17.0,10.0,0.0,-6.0,-2.0,5.0,0.0,0.0,0.0,0.0,0.0,0.0,0.0,-0.65381,0.60254,0.18457,12.0,-1.0,-2.0,-2.0,-5.0,-2.0,5.0,-33.0,45.5,155.3125,-44.75,-0.40222,-0.67975,0.06219,0.61017,-0.75244,0.56787,-0.12158,0.0,0.0,0.0,0.0,0.0,0.0,0.0,0.0,6.0625,34.6875,-12.75,-0.37738,-0.7674,0.0105,0.51825,-0.92773,0.55127,0.11914,-29.0,-15.0,-5.0,4.0,10.0,7.0,3.0,-12.0,-92.4375,-141.375,47.9375,-0.37262,-0.68109,0.00195,0.63025
deaf,0.0,0.0,0.0,8.0,4.0,1.0,3.0,-7.0,-9.0,1.0,2.0,0.0,0.0,0.0,0.0,0.0,0.0,0.0,-0.45898,0.82178,0.00781,0.0,23.0,36.0,14.0,7.0,7.0,-1.0,5.0,9.375,-27.875,-8.8125,-0.05847,0.34283,-0.61346,-0.70905,-0.83301,0.75977,0.08203,-36.0,-64.0,-22.0,-8.0,-15.0,-16.0,-5.0,-7.0,49.125,-79.375,-63.1875,-0.24567,0.26569,-0.60242,-0.71149,0.0,0.0,0.0,27.0,11.0,3.0,-3.0,-15.0,-10.0,-14.0,-2.0,0.0,0.0,0.0,0.0,0.0,0.0,0.0
deaf,0.00635,-0.54492,0.8252,1.0,1.0,-3.0,-6.0,-4.0,0.0,-1.0,0.0,-0.625,0.1875,-1.4375,0.69788,-0.20624,-0.19897,0.65637,0.00781,-0.54736,0.83545,-1.0,-3.0,-4.0,-6.0,-8.0,4.0,-1.0,-5.0,-0.3125,0.1875,2.4375,0.69702,-0.20648,-0.19843,0.65735,-4.9E-4,-0.55029,0.83301,-3.0,-2.0,-4.0,-5.0,-1.0,0.0,0.0,-26.0,-0.1875,-2.25,0.0,0.69495,-0.20569,-0.19904,0.65961,0.0,0.0,0.0,-4.0,-3.0,-5.0,-7.0,-7.0,-4.0,-4.0,-6.0,0.0,0.0,0.0,0.0,0.0,0.0,0.0
deaf,0.0127,-0.56641,0.81104,-1.0,0.0,2.0,-2.0,-3.0,-1.0,1.0,-1.0,2.375,1.0625,0.75,0.81415,-0.25299,0.15723,-0.49841,0.0,0.0,0.0,-3.0,-2.0,-3.0,-3.0,-1.0,-9.0,-4.0,-7.0,0.0,0.0,0.0,0.0,0.0,0.0,0.0,0.0,0.0,0.0,2.0,0.0,1.0,3.0,2.0,2.0,-1.0,8.0,0.0,0.0,0.0,0.0,0.0,0.0,0.0,0.00684,-0.55225,0.81445,1.0,3.0,2.0,2.0,3.0,-2.0,-2.0,0.0,-1.75,2.75,-3.625,0.80286,-0.25439,0.16138,-0.51447
deaf,0.01514,-0.58691,0.79834,0.0,-1.0,2.0,2.0,0.0,0.0,-2.0,-3.0,0.1875,-0.375,0.375,0.30811,-0.08856,-0.29895,0.89874,0.0166,-0.58301,0.80762,-2.0,-1.0,0.0,5.0,6.0,2.0,0.0,-4.0,0.0,0.1875,-0.8125,0.30804,-0.08875,-0.29877,0.89886,0.01807,-0.58838,0.80127,1.0,-4.0,-8.0,-10.0,-9.0,-8.0,-4.0,2.0,0.25,-0.375,2.875,0.30695,-0.09015,-0.29688,0.89972,0.00244,-0.59424,0.81299,-2.0,-3.0,-3.0,1.0,-1.0,-4.0,-1.0,3.0,-5.0,0.875,-6.8125,0.30865,-0.09033,-0.30151,0.89752
deaf,0.0166,-0.56348,0.8125,0.0,-1.0,-3.0,-4.0,0.0,2.0,-1.0,0.0,-0.8125,-1.125,0.875,0.9342,-0.29382,0.05652,-0.19434,0.02344,-0.56543,0.81104,-1.0,0.0,3.0,3.0,3.0,3.0,0.0,1.0,0.5625,-2.3125,-1.75,0.9339,-0.29443,0.0545,-0.19519,0.02051,-0.55664,0.81787,-3.0,-1.0,-2.0,-3.0,-5.0,-1.0,2.0,3.0,-1.0625,0.0625,-6.0,0.9306,-0.29889,0.04932,-0.20532,0.0,0.0,0.0,0.0,0.0,1.0,-1.0,-2.0,0.0,-3.0,-1.0,0.0,0.0,0.0,0.0,0.0,0.0,0.0
deaf,0.05029,-0.53027,0.83203,-1.0,0.0,0.0,-2.0,-6.0,-1.0,-1.0,-2.0,-0.3125,0.4375,0.375,0.492,-0.16754,0.22247,-0.82483,0.0542,-0.53906,0.82471,-1.0,0.0,-4.0,-3.0,-3.0,2.0,-1.0,-7.0,1.6875,-0.3125,1.0625,0.49249,-0.1673,0.22266,-0.82458,0.04004,-0.51025,0.8374,-1.0,-4.0,-4.0,-3.0,1.0,-2.0,1.0,-7.0,0.125,-4.4375,1.625,0.49835,-0.16907,0.22076,-0.82123,0.06104,-0.52588,0.82422,-5.0,0.0,-3.0,-4.0,-2.0,4.0,0.0,-3.0,-1.375,-2.9375,-0.4375,0.49615,-0.1745,0.21851,-0.82196
deaf,0.17969,-0.55029,0.80029,0.0,0.0,0.0,0.0,0.0,0.0,0.0,0.0,-0.6875,0.125,-0.75,0.14185,-0.14026,0.27832,-0.93958,0.1875,-0.5498,0.80225,0.0,0.0,-2.0,-5.0,-2.0,-1.0,0.0,9.0,-1.3125,0.5,2.1875,0.14197,-0.13873,0.27826,-0.93976,0.16357,-0.54639,0.80176,1.0,-2.0,-2.0,-4.0,-5.0,-3.0,2.0,1.0,-3.5,1.75,-3.125,0.14069,-0.14075,0.2818,-0.9386,0.18799,-0.55566,0.79053,0.0,1.0,0.0,1.0,3.0,-3.0,-2.0,0.0,-3.1875,1.3125,-4.875,0.13226,-0.1391,0.28369,-0.93951
thank_you,-0.00146,-0.55957,0.82813,-1.0,-1.0,-1.0,-4.0,-2.0,2.0,2.0,-4.0,-1.3125,1.25,1.5,-0.47382,0.13812,0.25629,-0.83112,-0.12354,-0.65674,0.95508,-3.0,0.0,-5.0,2.0,11.0,13.0,13.0,-1.0,12.6875,73.875,48.0,-0.44312,0.18494,0.21771,-0.84973,-0.47754,-0.41016,0.61377,-2.0,6.0,-2.0,-24.0,-16.0,-11.0,4.0,1.0,-10.0,126.75,-11.5625,-0.41174,0.44928,0.11578,-0.78436,-0.61865,-0.61377,0.47266,-1.0,-16.0,-6.0,-4.0,7.0,8.0,15.0,9.0,-3.8125,-81.3125,10.1875,-0.46051,0.50616,0.08435,-0.7243
thank_you,-0.01123,-0.58447,0.81543,-1.0,0.0,1.0,0.0,-2.0,-4.0,-2.0,4.0,0.6875,-0.3125,0.875,-0.61035,0.19965,0.22974,-0.73138,-0.17334,-0.67236,0.84814,7.0,-1.0,7.0,1.0,0.0,2.0,-1.0,2.0,-7.1875,22.9375,55.0,-0.56366,0.22949,0.21552,-0.76373,-0.45313,-0.45361,0.6582,2.0,4.0,-7.0,8.0,11.0,11.0,17.0,8.0,-23.0,161.3125,0.75,-0.51947,0.43652,0.06787,-0.73145,-0.60791,-0.61523,0.50684,-7.0,-15.0,0.0,-8.0,-12.0,-14.0,-21.0,-10.0,6.5,-79.5625,-12.5625,-0.54828,0.5069,0.02319,-0.66479
thank_you,-0.02246,-0.56836,0.80322,0.0,0.0,0.0,0.0,0.0,0.0,0.0,0.0,1.8125,-0.0625,0.0625,0.94983,-0.29492,0.04279,-0.09491,0.0,0.0,0.0,-1.0,5.0,-11.0,-11.0,-4.0,-1.0,11.0,7.0,0.0,0.0,0.0,0.0,0.0,0.0,0.0,-0.51123,-0.4834,0.52881,3.0,-6.0,3.0,7.0,-4.0,-12.0,-17.0,3.0,-1.0,119.1875,4.375,0.85956,-0.29541,0.40912,-0.08032,-0.65674,-0.57373,0.38965,-5.0,-1.0,4.0,3.0,-3.0,-18.0,-15.0,-12.0,-0.6875,-58.1875,11.25,0.83252,-0.2937,0.45557,-0.11395
thank_you,-0.03418,-0.6001,0.7959,1.0,0.0,-1.0,0.0,-3.0,2.0,1.0,2.0,0.75,-0.5,0.4375,-0.82611,0.28113,0.13904,-0.4682,-0.09375,-0.62646,0.93457,6.0,-14.0,-14.0,-10.0,-14.0,-17.0,-11.0,-6.0,24.0625,28.5625,46.0625,-0.81116,0.27655,0.11859,-0.50153,-0.44678,-0.53955,0.59473,-6.0,19.0,-4.0,-3.0,-7.0,-6.0,-9.0,2.0,-3.875,102.8125,7.0,-0.77734,0.39636,-0.06537,-0.48413,-0.25684,-0.38574,0.7168,-3.0,1.0,-5.0,-8.0,-5.0,-6.0,0.0,34.0,33.25,-107.8125,-42.75,-0.79773,0.3512,-0.02954,-0.48932
thank_you,-0.03467,-0.56055,0.81201,5.0,2.0,4.0,5.0,5.0,2.0,1.0,10.0,0.0625,-0.0625,0.5,0.88934,-0.26935,0.12769,-0.34674,0.0,0.0,0.0,-10.0,-7.0,-1.0,4.0,0.0,-3.0,-11.0,-14.0,0.0,0.0,0.0,0.0,0.0,0.0,0.0,0.0,0.0,0.0,0.0,0.0,0.0,0.0,0.0,0.0,0.0,0.0,0.0,0.0,0.0,0.0,0.0,0.0,0.0,-0.67334,-0.61719,0.30664,1.0,16.0,12.0,1.0,3.0,-9.0,-14.0,0.0,-8.625,-17.0625,12.5,0.73956,-0.11963,0.53687,-0.38782
thank_you,-0.04297,-0.70459,0.7124,0.0,0.0,-2.0,-4.0,-7.0,-1.0,-3.0,-4.0,-0.9375,-0.0625,-0.375,-0.82837,0.34644,0.14844,-0.41443,-0.0166,-0.72559,0.71191,4.0,-20.0,-25.0,-21.0,-11.0,-12.0,-4.0,13.0,18.8125,-29.5,34.625,-0.81653,0.33685,0.15399,-0.44293,-0.19385,-0.55371,0.86475,-6.0,0.0,11.0,-5.0,-15.0,-5.0,-3.0,1.0,7.9375,66.9375,22.6875,-0.81268,0.29413,0.07593,-0.49738,-0.19043,-0.42871,0.6748,-9.0,-5.0,-11.0,-17.0,-10.0,0.0,-1.0,-17.0,34.3125,-70.3125,-35.75,-0.83337,0.29785,0.01025,-0.46558
thank_you,-0.04834,-0.55957,0.81494,-2.0,-3.0,-4.0,-6.0,-10.0,-13.0,-17.0,23.0,-0.1875,0.3125,1.875,0.80286,-0.23187,0.18127,-0.51843,-0.30029,-0.57861,0.84668,1.0,-8.0,-14.0,-9.0,-5.0,-4.0,1.0,-1.0,0.4375,110.0,25.625,0.81317,-0.19025,0.255,-0.48737,-0.57373,-0.49805,0.46289,-6.0,-6.0,-2.0,-14.0,-8.0,0.0,1.0,-4.0,19.875,112.8125,-19.1875,0.68591,-0.03418,0.5163,-0.51166,-0.51074,-0.48291,0.51025,-2.0,-15.0,-18.0,-17.0,-12.0,-13.0,-15.0,8.0,6.6875,-105.375,-18.75,0.70715,-0.05701,0.47986,-0.51611
thank_you,-0.05518,-0.60986,0.79492,0.0,3.0,4.0,2.0,6.0,4.0,0.0,2.0,-1.25,-9.1875,8.4375,0.3208,-0.12921,-0.29047,0.89215,-0.21045,-0.63477,0.83398,-1.0,11.0,4.0,9.0,6.0,9.0,11.0,8.0,9.6875,64.625,41.375,0.2652,-0.17609,-0.26489,0.91022,-0.61523,-0.50781,0.4834,1.0,1.0,6.0,3.0,3.0,16.0,17.0,5.0,-9.25,151.5,2.8125,0.27991,-0.46844,-0.18964,0.81622,-0.48486,-0.5459,0.63037,-1.0,-8.0,0.0,2.0,-1.0,1.0,7.0,7.0,22.125,-133.75,-36.9375,0.27423,-0.38715,-0.20996,0.85486
thank_you,-0.06787,0.73389,0.68945,-4.0,-11.0,-12.0,-4.0,-2.0,0.0,-3.0,-3.0,0.6875,-0.4375,0.1875,-0.8252,-0.33966,-0.20605,-0.40167,-0.19043,0.76465,0.7085,-8.0,-1.0,7.0,6.0,3.0,6.0,2.0,5.0,9.3125,16.9375,-62.375,-0.84845,-0.33374,-0.23224,-0.33893,-0.52539,0.60889,0.55713,1.0,-15.0,-9.0,-4.0,-11.0,-6.0,-6.0,7.0,5.3125,112.5,-30.0,-0.82147,-0.25128,-0.42194,-0.28992,0.0,0.0,0.0,-23.0,-11.0,-10.0,1.0,4.0,-5.0,-5.0,-9.0,0.0,0.0,0.0,0.0,0.0,0.0,0.0
thank_you,-0.06982,-0.58008,0.81299,0.0,2.0,-3.0,-4.0,-5.0,1.0,1.0,5.0,-1.4375,0.625,0.1875,0.66901,-0.23798,-0.19525,0.67651,-0.09619,-0.60498,0.81543,4.0,-2.0,-8.0,-3.0,-2.0,11.0,15.0,8.0,7.9375,-5.375,30.25,0.65375,-0.23633,-0.1925,0.6925,0.0,0.0,0.0,3.0,9.0,8.0,5.0,7.0,2.0,3.0,1.0,0.0,0.0,0.0,0.0,0.0,0.0,0.0,-0.38818,-0.45996,0.69629,-16.0,-11.0,-8.0,-6.0,-8.0,0.0,7.0,-15.0,38.625,26.3125,-8.125,0.64093,-0.34064,-0.02039,0.6875
thank_you,-0.10107,-0.62109,0.8042,2.0,0.0,-9.0,2.0,5.0,1.0,-3.0,-3.0,-7.5,-3.5,12.0,0.60864,-0.16595,0.24823,-0.73517,-0.36328,-0.48926,0.88379,-14.0,-5.0,7.0,7.0,8.0,11.0,0.0,-6.0,9.625,168.8125,23.875,0.61743,-0.05255,0.33179,-0.7113,-0.58936,-0.47021,0.38721,4.0,14.0,-6.0,-9.0,-4.0,3.0,-5.0,14.0,35.6875,100.875,-31.4375,0.46429,0.172,0.50842,-0.70453,-0.42529,-0.38965,0.56982,-5.0,-8.0,3.0,-5.0,-1.0,3.0,10.0,-13.0,21.8125,-120.25,-18.3125,0.51514,0.09729,0.43884,-0.7298
thank_you,-0.10693,-0.62256,0.77441,-1.0,0.0,-1.0,-1.0,-2.0,0.0,-1.0,-1.0,-1.1875,-0.75,1.3125,0.7251,-0.29413,-0.1673,0.59973,-0.11133,-0.60156,0.79932,-2.0,-17.0,-15.0,-10.0,-15.0,-18.0,-17.0,11.0,12.9375,-16.25,23.875,0.71283,-0.28259,-0.17023,0.61884,0.0,0.0,0.0,-4.0,-1.0,15.0,-5.0,-9.0,-1.0,13.0,-4.0,0.0,0.0,0.0,0.0,0.0,0.0,0.0,0.0,0.0,0.0,-1.0,3.0,5.0,5.0,8.0,25.0,36.0,-32.0,0.0,0.0,0.0,0.0,0.0,0.0,0.0
thank_you,-0.11475,-0.59326,0.79883,0.0,-3.0,-5.0,-12.0,-8.0,-2.0,0.0,0.0,-0.875,0.75,0.5,0.70105,-0.27332,-0.16815,0.63678,0.0,0.0,0.0,0.0,-3.0,-2.0,-2.0,-5.0,-5.0,-5.0,1.0,0.0,0.0,0.0,0.0,0.0,0.0,0.0,-0.1416,-0.50098,0.8501,-14.0,-11.0,-7.0,-5.0,-6.0,-3.0,0.0,0.0,29.5,10.3125,17.0,0.64783,-0.22308,-0.14508,0.71375,-0.4165,-0.49805,0.79639,5.0,-6.0,12.0,7.0,12.0,20.0,24.0,7.0,-5.375,58.875,-7.875,0.65826,-0.28314,-0.06635,0.69427
thank_you,-0.12451,-0.61182,0.78613,-2.0,-3.0,-2.0,-5.0,-6.0,-9.0,-6.0,-17.0,0.3125,-0.625,0.1875,-0.02832,0.07672,0.31915,-0.94421,-0.17627,-0.61133,0.86035,-7.0,6.0,43.0,6.0,1.0,-6.0,-13.0,6.0,30.9375,-1.3125,41.9375,0.02258,0.07147,0.30316,-0.95001,-0.46387,-0.44629,0.67676,1.0,10.0,13.0,12.0,1.0,-2.0,-5.0,-25.0,-6.0625,143.75,-14.1875,0.00336,0.28357,0.27393,-0.91901,-0.59863,-0.54053,0.52148,-2.0,24.0,10.0,5.0,0.0,-4.0,0.0,8.0,1.3125,-52.4375,-0.9375,-0.08215,0.40851,0.27734,-0.86572
thank_you,-0.12646,0.78809,0.61572,5.0,7.0,13.0,9.0,6.0,3.0,1.0,3.0,-2.75,-4.9375,-1.625,-0.5257,-0.3064,0.31085,0.73016,0.0,0.0,0.0,10.0,9.0,-17.0,-17.0,-4.0,-4.0,0.0,-5.0,0.0,0.0,0.0,0.0,0.0,0.0,0.0,-0.479,0.56592,0.51611,-3.0,-11.0,-11.0,-8.0,-20.0,-6.0,3.0,-5.0,8.625,152.8125,-18.0,-0.48755,-0.5061,0.10583,0.70355,-0.76025,0.76416,0.3374,1.0,13.0,3.0,-1.0,-4.0,-11.0,-8.0,2.0,8.5,-55.3125,-3.375,-0.50311,-0.5788,0.04156,0.64044
thank_you,-0.14258,-0.64551,0.74219,1.0,0.0,1.0,6.0,6.0,3.0,1.0,5.0,-8.8125,7.4375,25.6875,0.1582,0.0188,0.35474,-0.92133,-0.57227,-0.53564,0.62402,-5.0,-10.0,-14.0,-23.0,-10.0,3.0,5.0,-5.0,5.8125,165.875,37.6875,0.18079,0.21558,0.36523,-0.88739,-0.75537,-0.57715,0.33057,-11.0,-4.0,1.0,5.0,6.0,2.0,-8.0,-39.0,-13.9375,-36.75,15.5625,0.11487,0.41388,0.38623,-0.81628,0.0,0.0,0.0,-12.0,-23.0,-10.0,-6.0,-7.0,-3.0,-8.0,-17.0,0.0,0.0,0.0,0.0,0.0,0.0,0.0
thank_you,-0.15967,0.75977,0.62695,-4.0,11.0,4.0,3.0,0.0,0.0,3.0,6.0,1.5,-3.75,-6.875,-0.55206,-0.33057,0.27917,0.71277,-0.31982,0.7666,0.76514,-18.0,-24.0,-23.0,-23.0,-23.0,-17.0,8.0,10.0,-37.1875,47.25,-70.25,-0.49811,-0.33838,0.24481,0.75989,-0.51563,0.51904,0.47754,-28.0,-22.0,-13.0,-6.0,-10.0,-6.0,-5.0,-18.0,-12.625,172.8125,-2.1875,-0.49042,-0.5434,0.06036,0.67865,-0.66699,0.65186,0.34961,9.0,-4.0,-10.0,-7.0,-5.0,-6.0,-5.0,-4.0,-30.25,-105.0625,17.6875,-0.52655,-0.55389,0.03485,0.64398
thank_you,-0.1709,0.75244,0.64453,4.0,-5.0,-13.0,-11.0,-5.0,-5.0,-4.0,-1.0,-0.375,-11.4375,-6.375,0.18921,0.16943,-0.37848,-0.89014,-0.37988,0.68115,0.72949,31.0,20.0,6.0,12.0,14.0,9.0,-2.0,7.0,-5.0625,77.9375,-38.6875,0.08527,0.22882,-0.33789,-0.909,-0.63477,0.65088,0.30957,-8.0,-15.0,-14.0,-10.0,-8.0,-9.0,-2.0,-7.0,-0.25,18.5625,-1.875,0.14825,0.4903,-0.28986,-0.80847,-0.33838,0.66016,0.6958,-2.0,-5.0,-5.0,4.0,8.0,4.0,-9.0,-26.0,1.0,-95.5,38.875,0.12946,0.23834,-0.32367,-0.90649
thank_you,-0.1709,0.7666,0.60352,5.0,-4.0,2.0,3.0,0.0,-1.0,0.0,6.0,-0.625,-10.375,-3.125,-0.52441,-0.31073,0.29602,0.73541,0.0,0.0,0.0,-13.0,2.0,4.0,2.0,6.0,8.0,1.0,-11.0,0.0,0.0,0.0,0.0,0.0,0.0,0.0,-0.5625,0.53369,0.41553,6.0,-5.0,-6.0,-10.0,-1.0,7.0,7.0,9.0,-28.75,148.6875,14.8125,-0.45459,-0.57263,0.07495,0.6781,0.0,0.0,0.0,-4.0,-15.0,-2.0,1.0,5.0,5.0,4.0,2.0,0.0,0.0,0.0,0.0,0.0,0.0,0.0
thank_you,-0.17725,0.85303,0.63232,-11.0,0.0,-5.0,-2.0,-3.0,-6.0,-8.0,-13.0,-3.75,-14.25,-2.0625,-0.4989,-0.28821,0.31055,0.75604,-0.39893,0.70947,0.77295,12.0,5.0,1.0,0.0,-2.0,7.0,-1.0,-7.0,-17.8125,96.0625,-45.3125,-0.44537,-0.33984,0.24023,0.79272,-0.50537,0.55713,0.45557,1.0,-14.0,-22.0,-13.0,-3.0,-2.0,-2.0,-7.0,-22.875,136.75,20.3125,-0.45636,-0.55548,0.10071,0.68774,0.0,0.0,0.0,12.0,4.0,1.0,0.0,6.0,-9.0,-9.0,4.0,0.0,0.0,0.0,0.0,0.0,0.0,0.0
thank_you,-0.21045,0.84277,0.56152,-25.0,-31.0,-3.0,2.0,1.0,4.0,1.0,-12.0,-2.4375,-13.4375,-2.875,-0.5611,-0.36298,0.27692,0.69043,-0.3335,0.70605,0.78857,-47.0,-19.0,-16.0,-9.0,-8.0,-5.0,-3.0,-19.0,-42.8125,68.25,-43.4375,-0.51477,-0.3493,0.21356,0.75323,-0.55615,0.56738,0.42676,-2.0,-13.0,-1.0,-1.0,-2.0,-5.0,11.0,7.0,-4.1875,128.9375,20.3125,-0.51208,-0.54767,0.04346,0.66028,-0.71436,0.74023,0.33643,22.0,22.0,4.0,5.0,-4.0,-7.0,5.0,17.0,1.9375,-46.0625,2.5,-0.5376,-0.59521,-0.0152,0.59711
thank_you,-0.21387,0.75342,0.62109,1.0,5.0,6.0,1.0,-3.0,-9.0,-11.0,-13.0,-1.4375,-14.6875,0.0,-0.56,-0.34131,0.25323,0.71118,-0.35352,0.77051,0.7417,6.0,8.0,6.0,-2.0,-18.0,7.0,9.0,3.0,-21.625,47.6875,-41.5625,-0.51129,-0.33527,0.23596,0.75531,-0.53174,0.55566,0.56152,-9.0,-7.0,-8.0,6.0,6.0,-6.0,-3.0,-10.0,0.875,135.6875,-22.9375,-0.49835,-0.4906,0.10278,0.7074,-0.73682,0.66992,0.30469,-28.0,-15.0,1.0,6.0,1.0,0.0,5.0,3.0,-1.5625,-69.5,8.6875,-0.52594,-0.57764,0.01697,0.62402
thank_you,-0.22168,0.87402,0.51123,12.0,13.0,5.0,-1.0,2.0,-1.0,4.0,12.0,-7.4375,-15.1875,-12.1875,-0.58984,-0.40533,0.26135,0.64771,-0.40527,0.69141,0.729,-20.0,0.0,7.0,4.0,-3.0,29.0,2.0,-4.0,-38.8125,53.5,-24.625,-0.55518,-0.37329,0.17474,0.72241,0.0,0.0,0.0,-27.0,-21.0,-1.0,0.0,0.0,-6.0,-8.0,-14.0,0.0,0.0,0.0,0.0,0.0,0.0,0.0,-0.6499,0.63574,0.3999,41.0,23.0,9.0,4.0,7.0,5.0,5.0,19.0,-26.125,-94.625,12.375,-0.59698,-0.50818,0.02783,0.62018
thank_you,-0.41504,0.65137,0.64063,-4.0,-1.0,0.0,0.0,-11.0,-3.0,6.0,-7.0,-5.4375,-7.3125,0.6875,-0.39722,0.05542,-0.41748,-0.81549,0.0,0.0,0.0,-15.0,-22.0,-7.0,-19.0,4.0,-14.0,-13.0,-7.0,0.0,0.0,0.0,0.0,0.0,0.0,0.0,0.0,0.0,0.0,-10.0,-14.0,3.0,3.0,7.0,1.0,-7.0,-17.0,0.0,0.0,0.0,0.0,0.0,0.0,0.0,-0.20166,0.46143,0.6875,-21.0,-33.0,-14.0,-6.0,-5.0,-7.0,-13.0,-4.0,-7.1875,-42.125,24.3125,-0.33984,0.03723,-0.35016,-0.87213
thank_you,-0.49072,0.58594,0.64014,-1.0,-4.0,-3.0,-3.0,-13.0,23.0,22.0,14.0,6.9375,-30.4375,-3.125,-0.87799,-0.37634,-0.19818,0.21985,-0.50537,0.54639,0.85107,8.0,-6.0,-3.0,-2.0,-19.0,-12.0,-2.0,4.0,-16.0,13.3125,27.5,-0.896,-0.34192,-0.15045,0.24023,-0.64355,0.58887,0.52637,-12.0,-19.0,-5.0,-6.0,2.0,2.0,6.0,11.0,-51.375,100.25,26.5,-0.89636,-0.32874,-0.27203,0.12073,-0.33398,0.39648,0.66504,9.0,3.0,11.0,15.0,11.0,2.0,8.0,30.0,-9.5625,-142.6875,58.5,-0.92932,-0.31183,-0.16791,0.10455
thank_you,-0.50293,0.64941,0.59766,-6.0,-1.0,-3.0,0.0,-2.0,-4.0,-4.0,-4.0,0.5,0.1875,0.4375,-0.41113,0.08411,-0.44305,-0.7923,-0.47217,0.65674,0.60596,-36.0,-28.0,-14.0,-6.0,21.0,25.0,-2.0,-53.0,0.3125,-18.375,-9.125,-0.41779,0.07117,-0.43701,-0.7934,-0.37646,0.5957,0.68408,-14.0,0.0,13.0,16.0,39.0,19.0,10.0,16.0,-21.25,-1.375,41.625,-0.41486,0.03394,-0.39716,-0.81799,-0.44287,0.604,0.61865,21.0,7.0,-6.0,8.0,21.0,-6.0,-3.0,68.0,-15.3125,22.0,7.4375,-0.34631,0.09155,-0.39368,-0.84662
thank_you,-0.66113,0.54541,0.55566,-3.0,1.0,0.0,0.0,4.0,-2.0,3.0,-2.0,-0.875,-0.9375,1.4375,-0.38562,0.20203,-0.43689,-0.78723,0.0,0.0,0.0,34.0,24.0,2.0,-7.0,-41.0,-15.0,0.0,5.0,0.0,0.0,0.0,0.0,0.0,0.0,0.0,-0.53613,0.64258,0.78809,1.0,-11.0,-12.0,1.0,-6.0,2.0,-2.0,-6.0,-20.8125,5.6875,28.875,-0.33093,0.10834,-0.35706,-0.86682,-0.29688,0.36865,0.59277,-21.0,-5.0,0.0,-5.0,-6.0,5.0,4.0,8.0,-19.625,-73.875,37.25,-0.29523,0.13281,-0.35016,-0.87903
thank_you,-0.76318,0.30029,-0.21191,15.0,15.0,-1.0,-4.0,-4.0,-1.0,-5.0,-1.0,-1.6875,-20.3125,-1.25,-0.58997,-0.43079,-0.66852,0.13971,-0.95264,0.44336,0.12061,14.0,17.0,0.0,-1.0,-9.0,-5.0,3.0,-3.0,-29.75,-144.0625,36.5625,-0.7265,-0.39935,-0.53546,0.16132,-0.86035,0.646,0.50146,-2.0,-18.0,-14.0,-12.0,-26.0,-20.0,8.0,-3.0,-56.625,13.3125,79.5625,-0.85468,-0.35852,-0.37244,0.04871,-0.63037,0.66309,0.36279,8.0,-4.0,-6.0,-7.0,-4.0,-5.0,-12.0,-7.0,11.8125,-48.1875,0.9375,-0.83057,-0.34796,-0.43085,-0.05963
thank_you,-0.83154,0.39795,-0.21387,-9.0,-13.0,-5.0,-5.0,-9.0,-4.0,-6.0,11.0,1.1875,-20.0,5.9375,-0.33228,0.43182,-0.64929,-0.5307,0.0,0.0,0.0,-11.0,-2.0,-8.0,-7.0,-23.0,44.0,7.0,-2.0,0.0,0.0,0.0,0.0,0.0,0.0,0.0,-0.77393,0.59277,0.58643,-29.0,-13.0,-18.0,-18.0,-17.0,4.0,-12.0,-13.0,-58.9375,-12.3125,106.375,-0.40137,0.18524,-0.49176,-0.75018,-0.61475,0.67432,0.45801,-7.0,-4.0,0.0,-1.0,-5.0,0.0,1.0,-7.0,12.375,-51.75,-3.6875,-0.30554,0.22229,-0.48529,-0.78857
thank_you,-0.8501,0.32422,-0.17383,-25.0,-12.0,0.0,0.0,-1.0,-4.0,-8.0,4.0,-15.5,-65.6875,11.6875,-0.63782,-0.37207,-0.66412,0.11719,-0.9292,0.56494,0.37158,-16.0,0.0,5.0,4.0,15.0,-6.0,7.0,3.0,-38.4375,-116.75,51.4375,-0.80414,-0.35876,-0.46228,0.10498,-0.74268,0.64014,0.38428,-12.0,-9.0,0.0,-1.0,-2.0,0.0,3.0,3.0,-39.9375,88.625,44.5625,-0.83978,-0.32025,-0.43048,-0.0835,-0.51074,0.60986,0.51318,25.0,8.0,3.0,4.0,8.0,6.0,1.0,24.0,-14.9375,-121.375,23.3125,-0.8678,-0.32458,-0.36664,-0.08502
thank_you,-0.85449,0.42285,-0.19727,-5.0,-11.0,-12.0,-13.0,-11.0,17.0,10.0,9.0,0.3125,-9.875,-7.0,-0.34277,0.42596,-0.6413,-0.53839,-0.86621,0.43506,0.1709,-14.0,-6.0,-14.0,-7.0,-23.0,-29.0,-10.0,-36.0,-21.75,-184.5625,31.6875,-0.44037,0.29156,-0.57001,-0.62946,-0.71436,0.65186,0.51514,-9.0,8.0,10.0,-1.0,-15.0,-7.0,0.0,5.0,-58.5625,42.0625,66.8125,-0.36572,0.16608,-0.47601,-0.78241,-0.5918,0.64307,0.37451,-31.0,-25.0,-9.0,0.0,-2.0,-1.0,-6.0,-22.0,-28.5625,-70.0625,0.375,-0.31433,0.17468,-0.46014,-0.81183
thank_you,-0.87012,0.39111,-0.24902,0.0,-6.0,0.0,-2.0,2.0,5.0,5.0,-19.0,5.25,-12.1875,-0.5,-0.31622,0.46722,-0.63232,-0.53094,-0.84277,0.47363,-0.03027,10.0,-1.0,0.0,-16.0,-17.0,2.0,-19.0,19.0,-16.625,-161.1875,6.3125,-0.39075,0.37073,-0.58148,-0.6098,-0.87109,0.67285,0.42871,-9.0,-17.0,-13.0,1.0,-5.0,12.0,-3.0,1.0,-61.5,36.9375,67.625,-0.35046,0.237,-0.4809,-0.76801,-0.53613,0.66113,0.41357,-28.0,-17.0,-13.0,-9.0,-5.0,-4.0,-2.0,-9.0,-36.4375,-65.9375,28.375,-0.26904,0.23914,-0.4682,-0.80701
thank_you,-0.87354,0.38623,-0.23096,-20.0,-19.0,-11.0,-7.0,-9.0,0.0,18.0,18.0,0.5625,-11.4375,0.25,-0.33667,0.44458,-0.64264,-0.52545,-0.97412,0.44922,0.22412,-17.0,-19.0,4.0,-2.0,-50.0,-13.0,2.0,-2.0,-45.375,-159.5,34.6875,-0.4494,0.29211,-0.55817,-0.63348,-0.80078,0.79492,0.24365,-25.0,-14.0,-1.0,-2.0,2.0,6.0,9.0,22.0,-42.0,77.6875,43.5625,-0.26013,0.2525,-0.50549,-0.78302,-0.26172,0.5625,0.70654,-4.0,-17.0,-10.0,-12.0,-3.0,-10.0,-9.0,-13.0,-39.0,-149.625,46.0,-0.27563,0.04803,-0.38562,-0.87927
thank_you,-0.8916,0.33838,-0.32422,7.0,-3.0,-2.0,-2.0,-5.0,0.0,2.0,2.0,0.3125,-4.1875,-0.6875,-0.57892,-0.37122,-0.72235,0.07324,-0.78223,0.33154,-0.19434,16.0,9.0,-7.0,-4.0,-5.0,-4.0,-4.0,-7.0,-7.625,-57.4375,13.8125,-0.61584,-0.37567,-0.68744,0.08472,-0.88184,0.64844,0.46045,19.0,3.0,-7.0,-12.0,-4.0,-2.0,-18.0,11.0,-52.1875,-39.875,104.5,-0.81415,-0.36932,-0.4472,0.02856,-0.68604,0.63965,0.41943,-2.0,17.0,11.0,5.0,2.0,1.0,-12.0,3.0,-17.9375,-39.125,3.5625,-0.81616,-0.32568,-0.4668,-0.09985
thank_you,-0.89941,0.40576,-0.23145,-5.0,-6.0,-5.0,-4.0,-3.0,0.0,0.0,3.0,2.75,-2.125,-0.9375,-0.32672,0.44208,-0.64526,-0.53058,-0.76611,0.35889,-0.06689,0.0,7.0,9.0,10.0,13.0,2.0,11.0,-11.0,-0.75,-99.4375,7.75,-0.38501,0.40356,-0.61102,-0.56177,-0.74805,0.40967,0.53223,26.0,10.0,-1.0,-19.0,-24.0,-3.0,-4.0,3.0,-20.625,-78.625,98.375,-0.45392,0.25378,-0.52087,-0.677,-0.89355,0.74121,0.30762,11.0,0.0,-5.0,-8.0,-19.0,-6.0,-7.0,-3.0,-43.25,44.375,41.8125,-0.32959,0.23346,-0.49213,-0.77118
thank_you,-0.9043,0.3999,-0.30957,-4.0,2.0,-1.0,-3.0,-4.0,-2.0,-3.0,-9.0,-0.75,-0.125,0.9375,-0.33716,0.42383,-0.68433,-0.48834,0.0,0.0,0.0,2.0,1.0,-4.0,-3.0,2.0,3.0,3.0,-10.0,0.0,0.0,0.0,0.0,0.0,0.0,0.0,0.0,0.0,0.0,-3.0,-13.0,-9.0,-20.0,-29.0,0.0,-4.0,-4.0,0.0,0.0,0.0,0.0,0.0,0.0,0.0,-0.91943,0.69775,0.45313,13.0,23.0,2.0,-5.0,-2.0,2.0,-1.0,-1.0,-69.375,55.6875,75.5625,-0.38965,0.20831,-0.49347,-0.74927
thank_you,-0.90625,0.33691,-0.31348,0.0,0.0,0.0,0.0,0.0,0.0,0.0,0.0,1.75,-1.75,-1.0625,-0.4024,0.36176,-0.72479,-0.42651,-0.79004,0.34277,-0.1543,0.0,-12.0,-10.0,-8.0,-11.0,-7.0,-6.0,-26.0,-32.0,-74.9375,18.875,-0.43085,0.3327,-0.69568,-0.46881,-0.79102,0.56348,0.43457,-14.0,1.0,-7.0,-1.0,32.0,5.0,-7.0,-9.0,-49.625,-48.9375,80.6875,-0.50751,0.15442,-0.5495,-0.64557,-0.73877,0.68115,0.34277,-1.0,-5.0,-4.0,-5.0,-2.0,1.0,6.0,15.0,-22.5,64.4375,18.1875,-0.37701,0.1972,-0.51611,-0.74341
thank_you,-0.90723,0.38574,-0.27002,0.0,-1.0,1.0,0.0,-4.0,-7.0,-3.0,-3.0,0.5625,-8.75,-1.5,-0.60199,-0.3996,-0.68549,0.09033,-0.71729,0.41553,-0.02148,0.0,0.0,-3.0,-11.0,-2.0,14.0,8.0,-4.0,-29.25,-104.5,21.125,-0.66669,-0.39368,-0.62506,0.10004,0.0,0.0,0.0,0.0,0.0,0.0,0.0,0.0,0.0,0.0,0.0,0.0,0.0,0.0,0.0,0.0,0.0,0.0,-0.68311,0.73389,0.33105,0.0,0.0,0.0,2.0,6.0,-1.0,-6.0,-17.0,6.625,62.6875,5.6875,-0.82886,-0.33441,-0.43707,-0.10138
thank_you,-0.91748,0.32275,-0.26367,7.0,1.0,-6.0,-5.0,-2.0,0.0,-2.0,-16.0,0.75,-1.625,0.3125,-0.48608,0.23627,-0.76044,-0.36011,-0.94775,0.33154,-0.0498,17.0,14.0,6.0,13.0,-7.0,-2.0,-2.0,2.0,-17.8125,-83.6875,4.5625,-0.55884,0.19427,-0.69623,-0.40656,-0.854,0.53174,0.40479,-32.0,-31.0,-8.0,-17.0,-1.0,9.0,6.0,3.0,-51.25,-13.6875,61.625,-0.59662,0.10669,-0.55408,-0.57074,-0.66455,0.55127,0.38916,-56.0,-24.0,1.0,-1.0,-3.0,3.0,-4.0,-12.0,-38.9375,-59.0625,22.375,-0.52136,0.10828,-0.52667,-0.66266
thank_you,0.0,0.0,0.0,-1.0,-2.0,3.0,1.0,0.0,-3.0,1.0,0.0,0.0,0.0,0.0,0.0,0.0,0.0,0.0,-0.05957,-0.62061,0.80127,-5.0,-1.0,1.0,1.0,2.0,-2.0,-18.0,-25.0,4.125,-8.625,18.75,0.74713,-0.26709,-0.17395,0.58319,0.0,0.0,0.0,44.0,-19.0,-23.0,0.0,0.0,-4.0,3.0,-7.0,0.0,0.0,0.0,0.0,0.0,0.0,0.0,-0.31836,-0.45898,0.73535,-10.0,0.0,2.0,3.0,-2.0,6.0,10.0,-5.0,41.3125,45.1875,-33.9375,0.71301,-0.33893,-9.8E-4,0.61371
thank_you,0.0,0.0,0.0,-2.0,-3.0,-2.0,-3.0,-4.0,-9.0,-10.0,-6.0,0.0,0.0,0.0,0.0,0.0,0.0,0.0,0.0,0.0,0.0,0.0,-7.0,2.0,8.0,9.0,3.0,-6.0,-4.0,0.0,0.0,0.0,0.0,0.0,0.0,0.0,0.0,0.0,0.0,7.0,2.0,1.0,-5.0,-7.0,8.0,16.0,6.0,0.0,0.0,0.0,0.0,0.0,0.0,0.0,0.0,0.0,0.0,-6.0,-5.0,-3.0,-1.0,-2.0,5.0,6.0,-18.0,0.0,0.0,0.0,0.0,0.0,0.0,0.0
thank_you,0.0,0.0,0.0,-3.0,1.0,7.0,11.0,8.0,4.0,4.0,-1.0,0.0,0.0,0.0,0.0,0.0,0.0,0.0,-0.09961,-0.56348,0.86035,1.0,17.0,17.0,18.0,10.0,7.0,7.0,12.0,0.6875,40.125,44.4375,0.47015,-0.09326,0.27441,-0.83368,-0.51953,-0.4751,0.58105,3.0,19.0,23.0,5.0,8.0,16.0,6.0,-3.0,-7.6875,126.4375,1.9375,0.41833,0.14551,0.43658,-0.78308,-0.71484,-0.56445,0.40918,-9.0,6.0,-6.0,-7.0,-1.0,7.0,14.0,2.0,-25.0625,-76.8125,16.875,0.34302,0.28265,0.47937,-0.75671
