I,-0.0012023076923076924,-0.04018923076923077,0.0642276923076923,-0.15384615384615385,-0.23076923076923078,0.15384615384615385,-0.07692307692307693,-0.23076923076923078,-0.23076923076923078,-0.15384615384615385,-0.46153846153846156,-0.019230769230769232,-0.0625,0.057692307692307696,0.04164,-0.011775384615384615,0.017963076923076922,-0.06100692307692308,-0.0012392307692307692,-0.07959000000000002,0.12751615384615383,-0.38461538461538464,-0.23076923076923078,-0.23076923076923078,0.07692307692307693,0.46153846153846156,-0.15384615384615385,-0.46153846153846156,-0.3076923076923077,-0.0673076923076923,-0.14423076923076922,-0.07211538461538461,0.08328461538461539,-0.02355076923076923,0.03589384615384615,-0.12202307692307693,0.0010899999999999998,-0.12004153846153846,0.19170692307692308,-0.38461538461538464,-0.15384615384615385,0.07692307692307693,-0.23076923076923078,0.0,-0.07692307692307693,-0.23076923076923078,-0.07692307692307693,-0.12980769230769232,-0.009615384615384616,-1.0961538461538463,0.12315461538461539,-0.03627846153846154,0.05368769230769231,-0.18409153846153845,0.002816923076923077,-0.08090461538461538,0.12871846153846153,-0.23076923076923078,-0.38461538461538464,-0.46153846153846156,-1.1538461538461537,-0.5384615384615384,-0.23076923076923078,-0.46153846153846156,-0.6923076923076923,0.019230769230769232,0.04326923076923077,0.004807692307692308,0.08118615384615385,-0.024226153846153845,0.03563538461538462,-0.12337076923076923
I,-0.0019090909090909091,-0.050914545454545455,0.0733309090909091,-0.09090909090909091,-0.18181818181818182,0.09090909090909091,-0.09090909090909091,-0.09090909090909091,-0.18181818181818182,-0.18181818181818182,-0.18181818181818182,-0.017045454545454544,0.011363636363636364,0.03977272727272727,0.08565454545454546,-0.026228181818181817,0.005531818181818182,-0.014454545454545454,-0.002086363636363636,-0.10143,0.1477718181818182,-0.09090909090909091,-0.2727272727272727,-0.18181818181818182,-0.09090909090909091,-0.09090909090909091,-0.7272727272727273,-0.45454545454545453,-0.36363636363636365,0.17045454545454544,-0.7954545454545454,-0.39204545454545453,0.17139272727272728,-0.05252363636363637,0.01016,-0.028630909090909092,0.0031072727272727276,-0.1008518181818182,0.14945818181818182,-0.09090909090909091,-0.18181818181818182,0.18181818181818182,0.6363636363636364,0.36363636363636365,-0.45454545454545453,-0.5454545454545454,-0.18181818181818182,-0.5852272727272727,-1.1477272727272727,-2.340909090909091,0.17096454545454545,-0.053128181818181824,0.00718,-0.030872727272727274,0.00989909090909091,-0.10063000000000001,0.14719454545454547,-0.2727272727272727,-0.36363636363636365,-0.6363636363636364,-1.0,-0.8181818181818182,-0.2727272727272727,0.18181818181818182,-0.2727272727272727,0.22727272727272727,-0.75,0.375,0.17059909090909092,-0.053821818181818186,0.0055327272727272725,-0.03201545454545454
I,-0.002278888888888889,-0.059353333333333334,0.09364111111111112,-0.2222222222222222,-0.2222222222222222,-0.3333333333333333,-0.2222222222222222,-0.2222222222222222,-0.2222222222222222,-0.3333333333333333,-0.1111111111111111,-0.14583333333333334,-0.05555555555555555,-0.006944444444444444,0.07664666666666667,-0.023661111111111112,-0.02061,0.07406222222222222,0.0,0.0,0.0,0.2222222222222222,0.1111111111111111,0.5555555555555556,1.4444444444444444,1.3333333333333333,0.3333333333333333,-0.1111111111111111,0.0,0.0,0.0,0.0,0.0,0.0,0.0,0.0,-0.013075555555555556,-0.1732311111111111,0.27973111111111115,-0.2222222222222222,-0.2222222222222222,0.2222222222222222,0.1111111111111111,-0.1111111111111111,-0.2222222222222222,-0.4444444444444444,1.6666666666666667,-0.6319444444444444,-0.2708333333333333,-1.4305555555555556,0.22924,-0.07138333333333333,-0.06177444444444444,0.2228055555555556,-0.00981888888888889,-0.18164111111111111,0.2803822222222222,-0.8888888888888888,-0.8888888888888888,-0.4444444444444444,-0.7777777777777778,-1.1111111111111112,-0.8888888888888888,-0.8888888888888888,-1.1111111111111112,-0.2569444444444444,0.2013888888888889,-0.1736111111111111,0.2302588888888889,-0.07118666666666668,-0.06197777777777777,0.2217611111111111
I,-0.0028483333333333334,-0.049397500000000004,0.06665,0.0,0.0,-0.3333333333333333,-0.4166666666666667,-0.4166666666666667,-0.4166666666666667,-0.16666666666666666,0.0,-0.005208333333333333,-0.026041666666666668,0.005208333333333333,0.0163475,-0.006825833333333333,-0.024785,0.07756583333333333,-0.0030924999999999998,-0.048787500000000004,0.06901083333333334,-0.5,-0.4166666666666667,-0.5833333333333334,-0.9166666666666666,-1.1666666666666667,-0.25,-0.3333333333333333,-0.08333333333333333,0.3802083333333333,0.140625,0.15104166666666666,0.016205,-0.007009166666666667,-0.024597499999999998,0.07763666666666667,-0.009969166666666666,-0.1400141666666667,0.20670666666666668,-0.25,-0.25,-0.08333333333333333,-0.08333333333333333,-0.16666666666666666,-0.4166666666666667,-0.5833333333333334,0.0,-1.328125,-1.5729166666666667,-2.3229166666666665,0.0478625,-0.020009166666666665,-0.07437666666666666,0.23297083333333332,-0.00293,-0.14758333333333332,0.20381666666666667,-0.5,-0.16666666666666666,-0.16666666666666666,-0.25,0.0,0.16666666666666666,-0.6666666666666666,-0.3333333333333333,0.4010416666666667,0.3697916666666667,-0.3541666666666667,0.05075583333333333,-0.0186775,-0.07327333333333334,0.23281833333333335
I,-0.003329090909090909,-0.052468181818181824,0.07253181818181818,-0.18181818181818182,-0.09090909090909091,0.0,-0.18181818181818182,-0.09090909090909091,-0.09090909090909091,-0.09090909090909091,0.18181818181818182,-0.022727272727272728,0.03977272727272727,0.14772727272727273,0.08597636363636364,-0.02762090909090909,0.004805454545454545,-0.009305454545454546,-0.004039090909090909,-0.10715545454545455,0.14386545454545455,0.09090909090909091,-0.2727272727272727,-0.36363636363636365,-0.5454545454545454,-1.1818181818181819,-1.6363636363636365,-0.5454545454545454,0.09090909090909091,0.29545454545454547,-1.3068181818181819,-0.045454545454545456,0.17204727272727272,-0.05532545454545454,0.007978181818181818,-0.018227272727272727,-0.0013318181818181818,-0.05082545454545455,0.07248727272727272,-0.36363636363636365,-0.09090909090909091,-0.09090909090909091,-0.45454545454545453,-0.2727272727272727,0.2727272727272727,-0.09090909090909091,-0.5454545454545454,0.13636363636363635,-0.3181818181818182,-0.17045454545454544,0.08604818181818182,-0.027681818181818182,0.00329,-0.009121818181818182,0.005015454545454546,-0.2069872727272727,0.2915927272727272,-0.18181818181818182,-0.09090909090909091,0.18181818181818182,-0.36363636363636365,0.09090909090909091,0.9090909090909091,0.2727272727272727,0.18181818181818182,1.4261363636363635,-0.7386363636363636,0.2215909090909091,0.3449318181818182,-0.10851545454545454,0.010652727272727274,-0.03687636363636364
I,-0.0035684615384615386,-0.04499692307692308,0.06182384615384616,0.0,0.07692307692307693,0.23076923076923078,0.8461538461538461,1.1538461538461537,0.3076923076923077,0.07692307692307693,-0.15384615384615385,0.04807692307692308,0.08653846153846154,0.04326923076923077,0.060513846153846154,-0.02069076923076923,-0.011803076923076923,0.04107692307692308,-0.004019230769230769,-0.04495923076923077,0.06216230769230769,0.15384615384615385,-0.07692307692307693,0.0,0.46153846153846156,0.46153846153846156,0.23076923076923078,0.23076923076923078,0.8461538461538461,0.04326923076923077,0.10096153846153846,0.15865384615384615,0.06047615384615385,-0.020728461538461536,-0.0117,0.04114230769230769,-0.008413846153846154,-0.08988076923076924,0.12334692307692308,-0.15384615384615385,-0.3076923076923077,0.07692307692307693,0.15384615384615385,-0.15384615384615385,-0.6923076923076923,-0.38461538461538464,-0.3076923076923077,0.10096153846153846,-0.09134615384615384,-0.12980769230769232,0.12068461538461538,-0.04153230769230769,-0.023212307692307692,0.08269846153846154,-0.018705384615384617,-0.17886153846153846,0.24917384615384616,0.07692307692307693,0.07692307692307693,0.23076923076923078,0.0,-0.23076923076923078,-0.07692307692307693,0.15384615384615385,-0.7692307692307693,-0.019230769230769232,0.7548076923076923,-1.1538461538461537,0.24185846153846152,-0.08328,-0.04603923076923077,0.16468153846153846
I,-0.005751111111111111,0.08246555555555556,0.07432777777777778,1.0,1.2222222222222223,-0.2222222222222222,-0.4444444444444444,-0.4444444444444444,-0.5555555555555556,-0.6666666666666666,-0.8888888888888888,-0.08333333333333333,-0.375,0.3819444444444444,-0.09234666666666666,-0.03942888888888889,-0.020833333333333332,-0.042785555555555556,-0.022026666666666663,0.18278000000000003,0.13807555555555556,1.1111111111111112,1.5555555555555556,0.6666666666666666,0.0,1.3333333333333333,-0.4444444444444444,0.4444444444444444,-0.2222222222222222,0.7013888888888888,-4.145833333333333,-1.875,-0.18537,-0.08075555555555555,-0.03872333333333333,-0.08369333333333333,-0.0153,0.15478444444444445,0.1778422222222222,0.4444444444444444,-0.6666666666666666,-1.5555555555555556,-1.2222222222222223,-0.5555555555555556,1.2222222222222223,-0.5555555555555556,-0.5555555555555556,1.2430555555555556,15.069444444444445,-13.88888888888889,-0.19123666666666667,-0.07181222222222222,-0.04502444444444445,-0.07504,-0.13753222222222222,0.2174477777777778,0.18929,0.5555555555555556,2.111111111111111,0.4444444444444444,0.2222222222222222,-0.3333333333333333,0.4444444444444444,-0.4444444444444444,-0.8888888888888888,6.479166666666667,31.13888888888889,-1.5972222222222223,-0.27609666666666666,-0.09283555555555556,-0.12328444444444446,-0.10515666666666666
I,-0.0061311111111111115,-0.06716555555555555,0.0878911111111111,0.0,-0.3333333333333333,-0.1111111111111111,0.1111111111111111,-0.1111111111111111,0.2222222222222222,0.2222222222222222,0.1111111111111111,-0.027777777777777776,-0.06944444444444445,-0.020833333333333332,-0.016296666666666668,0.008673333333333333,0.03491222222222222,-0.10386111111111111,-0.005805555555555555,-0.06841333333333334,0.08848777777777778,-0.1111111111111111,-0.5555555555555556,-0.6666666666666666,0.1111111111111111,-0.1111111111111111,-0.1111111111111111,0.1111111111111111,-0.1111111111111111,0.0625,-0.3194444444444444,-0.19444444444444445,-0.016343333333333335,0.008375555555555556,0.03487777777777778,-0.10388888888888889,-0.010795555555555555,-0.13346333333333332,0.1778977777777778,-0.3333333333333333,-0.3333333333333333,-0.7777777777777778,-0.8888888888888888,-1.1111111111111112,-1.0,-0.5555555555555556,-0.1111111111111111,-0.22916666666666666,-0.22916666666666666,-0.9097222222222222,-0.033494444444444445,0.015971111111111113,0.07006222222222222,-0.20760777777777778,-0.007486666666666666,-0.20198555555555556,0.26567888888888885,-0.3333333333333333,-0.1111111111111111,-0.4444444444444444,-0.8888888888888888,-0.5555555555555556,-0.2222222222222222,-0.2222222222222222,-0.3333333333333333,0.3819444444444444,-0.3680555555555556,-0.6041666666666666,-0.05202888888888888,0.022616666666666667,0.10461444444444444,-0.31137444444444445
I,-0.006836,0.05172533333333333,0.042610666666666665,-0.06666666666666667,0.2,-0.2,-0.2,0.06666666666666667,0.13333333333333333,0.0,-0.3333333333333333,-0.016666666666666666,0.10833333333333334,-0.029166666666666667,-0.060242000000000004,-0.028340666666666667,-0.003483333333333333,6.833333333333333E-4,-0.012435333333333333,0.10250666666666666,0.08492866666666667,-1.0666666666666667,-1.2,-0.13333333333333333,-0.4,-0.5333333333333333,-0.3333333333333333,-0.8666666666666667,-2.8,0.041666666666666664,-0.32083333333333336,0.32916666666666666,-0.12044266666666667,-0.056770666666666664,-0.006946,0.001294,-0.019401333333333333,0.153548,0.126888,-0.2,1.5333333333333334,-0.2,-0.2,-0.2,-0.6,-1.6666666666666667,-3.533333333333333,-0.4,-0.22916666666666666,0.2791666666666667,-0.18072133333333334,-0.08507866666666668,-0.010172666666666667,0.0013013333333333334,-0.03378933333333333,0.165234,0.21513666666666664,0.13333333333333333,0.2,0.4666666666666667,0.5333333333333333,0.6666666666666666,-1.6666666666666667,-1.2,-0.6666666666666666,0.9708333333333333,2.8916666666666666,-4.979166666666667,-0.2501626666666667,-0.09028333333333333,-0.019266666666666668,-0.003218
I,-0.00724923076923077,-0.043381538461538464,0.06302615384615384,-0.15384615384615385,-0.15384615384615385,0.07692307692307693,0.07692307692307693,-0.15384615384615385,-0.23076923076923078,-0.23076923076923078,0.0,-0.014423076923076924,0.004807692307692308,0.009615384615384616,0.052114615384615384,-0.018873846153846154,-0.013535384615384616,0.05159384615384615,-0.007925384615384615,-0.04311923076923077,0.06358923076923076,-0.3076923076923077,-0.15384615384615385,-0.23076923076923078,-0.23076923076923078,-0.3076923076923077,0.15384615384615385,-0.15384615384615385,-0.3076923076923077,0.2644230769230769,0.3557692307692308,0.49038461538461536,0.05192230769230769,-0.018902307692307694,-0.013173846153846154,0.05186615384615385,-0.006385384615384616,-0.04353230769230769,0.06358923076923076,-0.15384615384615385,-0.6153846153846154,-1.0769230769230769,-0.9230769230769231,-0.9230769230769231,-0.6923076923076923,-0.3076923076923077,0.07692307692307693,-0.09134615384615384,0.10096153846153846,-0.34615384615384615,0.05284230769230769,-0.019005384615384615,-0.012958461538461538,0.05094076923076923,-0.02140923076923077,-0.12875615384615385,0.18945307692307692,-0.15384615384615385,-0.23076923076923078,-0.15384615384615385,-0.07692307692307693,-0.6923076923076923,-0.15384615384615385,0.3076923076923077,1.3846153846153846,0.09134615384615384,-0.22596153846153846,-0.20673076923076922,0.15957000000000002,-0.05678153846153847,-0.038926153846153846,0.15181846153846154
I,-0.008301111111111112,0.08610000000000001,0.07226555555555556,-0.8888888888888888,-0.8888888888888888,0.1111111111111111,-0.3333333333333333,-0.1111111111111111,0.0,-0.7777777777777778,0.0,-0.20833333333333334,-0.7986111111111112,0.13194444444444445,-0.09994222222222221,-0.044881111111111115,-0.009975555555555555,-0.015632222222222224,-0.012315555555555555,0.20274555555555557,0.17871111111111113,-0.4444444444444444,-0.2222222222222222,1.6666666666666667,1.5555555555555556,-0.2222222222222222,0.8888888888888888,0.1111111111111111,-0.3333333333333333,-2.486111111111111,1.3472222222222223,-12.26388888888889,-0.20126666666666665,-0.08936888888888889,-0.017415555555555556,-0.024265555555555554,-0.10291888888888888,0.20469777777777778,0.22211333333333336,0.3333333333333333,-0.3333333333333333,-1.7777777777777777,-1.4444444444444444,-1.8888888888888888,-1.8888888888888888,-2.0,-0.6666666666666666,10.722222222222221,33.895833333333336,-20.333333333333332,-0.3003822222222222,-0.12190111111111111,-0.07741444444444445,0.0026866666666666666,-0.2009011111111111,0.21983555555555556,0.13601333333333335,-0.2222222222222222,0.2222222222222222,-0.4444444444444444,-2.4444444444444446,-1.5555555555555556,-2.2222222222222223,0.3333333333333333,0.0,-11.48611111111111,17.6875,-0.4166666666666667,-0.2838,-0.11945222222222222,-0.1268511111111111,-0.014417777777777776
I,-0.008878181818181818,-0.04847272727272727,0.07554999999999999,-0.09090909090909091,0.09090909090909091,-0.09090909090909091,-0.2727272727272727,-0.36363636363636365,-0.2727272727272727,0.18181818181818182,0.8181818181818182,-0.005681818181818182,-0.011363636363636364,-0.0625,0.05222909090909091,-0.018892727272727273,-0.017628181818181817,0.06977454545454545,-0.016512727272727273,-0.09574727272727274,0.15114545454545456,-0.2727272727272727,-0.36363636363636365,0.0,-0.36363636363636365,-0.2727272727272727,-0.36363636363636365,-0.18181818181818182,0.8181818181818182,0.10227272727272728,-0.011363636363636364,-0.38636363636363635,0.10476909090909091,-0.037614545454545456,-0.03513454545454545,0.1393981818181818,-0.01842090909090909,-0.09490454545454546,0.15234363636363638,0.0,0.0,-0.18181818181818182,-0.36363636363636365,-0.45454545454545453,-0.7272727272727273,-0.18181818181818182,0.0,0.07954545454545454,-0.11363636363636363,-0.21022727272727273,0.10480818181818184,-0.03748090909090909,-0.03511181818181818,0.13940363636363637,-0.035155454545454545,-0.18892,0.30748454545454545,-0.09090909090909091,-0.36363636363636365,-0.36363636363636365,-0.45454545454545453,0.0,-0.9090909090909091,-0.6363636363636364,-0.18181818181818182,0.26704545454545453,-0.3068181818181818,-0.3806818181818182,0.21070454545454548,-0.07441363636363636,-0.06950727272727274,0.27831999999999996
I,-0.009577692307692308,-0.040527692307692306,0.06351384615384616,0.07692307692307693,0.07692307692307693,0.23076923076923078,0.3076923076923077,0.0,0.46153846153846156,0.38461538461538464,0.15384615384615385,0.0625,0.08653846153846154,0.10576923076923077,0.07357999999999999,-0.021658461538461536,0.0037276923076923077,0.00447,-0.019418461538461537,-0.08244461538461538,0.12669076923076925,0.0,-0.15384615384615385,-0.3076923076923077,-0.3076923076923077,-0.23076923076923078,-0.15384615384615385,-0.15384615384615385,-0.23076923076923078,0.6682692307692307,-0.5913461538461539,0.9759615384615384,0.14725384615384615,-0.04280923076923077,0.007028461538461539,0.010061538461538462,-0.01581230769230769,-0.07925230769230768,0.12819307692307694,-0.07692307692307693,0.0,0.07692307692307693,0.07692307692307693,0.07692307692307693,0.3076923076923077,0.23076923076923078,0.07692307692307693,0.28365384615384615,-0.32211538461538464,-0.5480769230769231,0.14730153846153846,-0.04282384615384616,0.005441538461538461,0.010291538461538463,-0.018142307692307694,-0.11842769230769233,0.19444846153846151,-0.15384615384615385,-0.23076923076923078,-0.46153846153846156,-0.6923076923076923,-0.9230769230769231,-0.46153846153846156,0.07692307692307693,-0.15384615384615385,0.6009615384615384,-1.1394230769230769,-0.15865384615384615,0.2214453846153846,-0.06284307692307692,0.005855384615384615,0.01518846153846154
I,-0.010525555555555555,0.08317111111111111,0.07416444444444444,-0.2222222222222222,-0.7777777777777778,-0.6666666666666666,0.0,-0.2222222222222222,0.1111111111111111,-0.2222222222222222,-0.1111111111111111,-0.19444444444444445,-0.1111111111111111,0.05555555555555555,-0.09991444444444444,-0.04292111111111111,-0.013854444444444444,-0.018161111111111114,-0.022732222222222223,0.17301444444444444,0.14648444444444447,-0.3333333333333333,-0.2222222222222222,-0.1111111111111111,-0.3333333333333333,-0.4444444444444444,-0.4444444444444444,0.0,-0.2222222222222222,-0.8958333333333334,-6.708333333333333,-1.9930555555555556,-0.2007377777777778,-0.08625666666666668,-0.023275555555555556,-0.033318888888888884,-0.01747,0.08968111111111111,0.08610000000000001,-1.0,-0.6666666666666666,0.1111111111111111,-1.1111111111111112,-0.8888888888888888,1.3333333333333333,-3.6666666666666665,-3.0,-2.5833333333333335,6.423611111111111,-10.194444444444445,-0.10139999999999999,-0.040731111111111114,-0.01740222222222222,-0.010172222222222223,-0.15505666666666668,0.20236555555555555,0.1840277777777778,0.0,-0.6666666666666666,-0.5555555555555556,0.2222222222222222,-2.111111111111111,-2.5555555555555554,0.0,-1.3333333333333333,1.1041666666666667,36.21527777777778,-3.0555555555555554,-0.2920066666666667,-0.11419666666666667,-0.11066999999999999,-0.02250222222222222
I,-0.01307076923076923,-0.044583846153846154,0.06253769230769231,-0.07692307692307693,-0.15384615384615385,-0.07692307692307693,-0.15384615384615385,-0.23076923076923078,0.3076923076923077,0.38461538461538464,-0.07692307692307693,-0.04807692307692308,0.038461538461538464,-0.12980769230769232,0.0029723076923076925,0.005948461538461538,0.023469999999999998,-0.07295615384615385,-0.025503076923076923,-0.08856692307692307,0.12398615384615384,-0.15384615384615385,-0.07692307692307693,-0.3076923076923077,-0.15384615384615385,-0.46153846153846156,-0.38461538461538464,-0.15384615384615385,-0.6153846153846154,-0.5240384615384616,-0.4951923076923077,-1.0144230769230769,0.005089230769230769,0.01123076923076923,0.047382307692307696,-0.14585076923076923,-0.029033846153846153,-0.1369446153846154,0.18513384615384615,-0.5384615384615384,-1.1538461538461537,-0.6923076923076923,-0.5384615384615384,-0.5384615384615384,-0.5384615384615384,-0.6923076923076923,-0.23076923076923078,0.13942307692307693,-0.24519230769230768,-0.8653846153846154,0.0047515384615384616,0.014483846153846154,0.0714853846153846,-0.21889153846153847,-0.040264615384615385,-0.18021307692307695,0.24849692307692312,-0.23076923076923078,-0.3076923076923077,0.07692307692307693,0.38461538461538464,0.46153846153846156,-0.07692307692307693,-0.46153846153846156,-0.23076923076923078,0.014423076923076924,-0.9134615384615384,0.34134615384615385,0.00785923076923077,0.0177,0.09551923076923076,-0.2918523076923077
I,-0.01378,0.08908444444444445,0.0673288888888889,-0.5555555555555556,-0.8888888888888888,-1.2222222222222223,-0.4444444444444444,-0.4444444444444444,-0.1111111111111111,-0.4444444444444444,-0.5555555555555556,-0.08333333333333333,-0.041666666666666664,0.16666666666666666,-0.03248444444444445,-0.008884444444444445,-0.04919444444444444,-0.09376999999999999,-0.016764444444444443,0.09044,0.06483333333333334,1.4444444444444444,0.2222222222222222,-1.3333333333333333,-1.0,-1.0,-0.6666666666666666,-1.2222222222222223,0.7777777777777778,-0.6805555555555556,-0.5069444444444444,0.3611111111111111,-0.032307777777777776,-0.008985555555555556,-0.048855555555555555,-0.09399444444444444,-0.04041888888888889,0.18614444444444445,0.16167555555555554,-0.3333333333333333,0.4444444444444444,1.3333333333333333,0.6666666666666666,-1.7777777777777777,-1.2222222222222223,-0.7777777777777778,-1.0,-9.5625,4.423611111111111,-8.95138888888889,-0.07183111111111111,-0.012755555555555556,-0.0915588888888889,-0.18887666666666666,-0.11523444444444444,0.21386777777777777,0.20833333333333334,-0.8888888888888888,-2.0,-2.2222222222222223,-3.7777777777777777,-1.7777777777777777,-0.2222222222222222,0.7777777777777778,-0.3333333333333333,5.326388888888889,35.94444444444444,-11.694444444444445,-0.11052111111111113,0.027777777777777776,-0.1485122222222222,-0.2757022222222222
I,-0.014115454545454544,-0.054066363636363635,0.07217727272727273,0.0,-0.2727272727272727,-0.7272727272727273,-0.6363636363636364,-0.36363636363636365,-1.0,-0.2727272727272727,-0.18181818181818182,-0.1590909090909091,0.011363636363636364,0.07954545454545454,-0.03649909090909091,0.01862090909090909,0.022727272727272728,-0.07790818181818182,-0.028276363636363634,-0.10790999999999999,0.14359909090909093,-0.2727272727272727,-0.9090909090909091,-1.0909090909090908,-1.0909090909090908,-0.9090909090909091,-1.0,-0.36363636363636365,-0.2727272727272727,-0.1875,0.14204545454545456,0.017045454545454544,-0.07286545454545455,0.037686363636363636,0.0457490909090909,-0.15567818181818183,-0.04243636363636363,-0.16308545454545456,0.21413272727272725,-0.36363636363636365,0.0,0.09090909090909091,0.5454545454545454,0.09090909090909091,0.09090909090909091,-0.09090909090909091,-0.6363636363636364,0.08522727272727272,-0.4715909090909091,-0.9545454545454546,-0.10963636363636363,0.056374545454545455,0.06887545454545455,-0.23332636363636364,-0.05109272727272727,-0.21772909090909093,0.2893290909090909,-0.2727272727272727,-0.5454545454545454,-0.6363636363636364,-1.3636363636363635,-1.3636363636363635,-1.0,-0.6363636363636364,-0.2727272727272727,0.3068181818181818,-0.10227272727272728,-0.75,-0.14830454545454547,0.07388545454545455,0.09240181818181817,-0.31023636363636364
I,-0.014159999999999999,0.06229666666666667,0.05607083333333333,0.5833333333333334,0.3333333333333333,0.4166666666666667,-0.08333333333333333,0.3333333333333333,0.25,0.08333333333333333,0.5833333333333334,-0.3333333333333333,0.13020833333333334,0.15104166666666666,-0.027303333333333332,-0.00471,-0.03394083333333333,-0.0708925,-0.02811666666666667,0.12259916666666666,0.1109625,-0.9166666666666666,-0.16666666666666666,-0.3333333333333333,-0.25,-0.08333333333333333,-0.25,-0.3333333333333333,-1.6666666666666667,-0.015625,-0.11979166666666667,-0.5885416666666666,-0.054942500000000005,-0.00918,-0.06798333333333333,-0.14161666666666667,-0.043538333333333325,0.18611666666666668,0.16662583333333333,0.08333333333333333,-0.08333333333333333,-1.0,-0.75,0.08333333333333333,0.08333333333333333,0.4166666666666667,-0.25,-0.4270833333333333,-0.4270833333333333,0.8072916666666666,-0.08187333333333334,-0.014515833333333334,-0.10147083333333333,-0.21282916666666665,-0.07450333333333332,0.21952416666666666,0.22322583333333335,0.8333333333333334,0.08333333333333333,-0.5,-1.3333333333333333,-0.4166666666666667,1.3333333333333333,0.4166666666666667,-0.5833333333333334,-7.984375,15.072916666666666,-19.411458333333332,-0.09069833333333333,-0.008295833333333334,-0.10323083333333334,-0.20864833333333332
I,-0.014485555555555557,-0.06190333333333334,0.0901688888888889,0.3333333333333333,0.5555555555555556,0.5555555555555556,-0.2222222222222222,0.5555555555555556,0.7777777777777778,0.8888888888888888,0.7777777777777778,-0.05555555555555555,0.0625,-0.14583333333333334,0.07959666666666666,-0.02984666666666667,-0.01595777777777778,0.06974333333333332,-0.028753333333333336,-0.12424111111111112,0.1797966666666667,-0.1111111111111111,0.0,0.3333333333333333,0.3333333333333333,0.5555555555555556,-0.1111111111111111,-0.3333333333333333,-0.3333333333333333,-0.2986111111111111,0.25,-0.1388888888888889,0.15931555555555554,-0.060017777777777774,-0.03187333333333334,0.13921444444444445,-0.04210111111111111,-0.18798777777777775,0.2714844444444444,-0.1111111111111111,0.2222222222222222,0.5555555555555556,0.1111111111111111,0.6666666666666666,0.1111111111111111,0.2222222222222222,-0.3333333333333333,0.006944444444444444,0.25,-0.7916666666666666,0.23929111111111112,-0.09001999999999999,-0.04777,0.20846222222222222,-0.04324,-0.18668666666666667,0.2698566666666667,-0.6666666666666666,-0.7777777777777778,0.1111111111111111,-0.3333333333333333,-0.1111111111111111,-0.1111111111111111,-0.1111111111111111,1.6666666666666667,0.10416666666666667,0.2777777777777778,-1.1458333333333333,0.24061333333333332,-0.09009555555555555,-0.04804111111111112,0.20683444444444443
I,-0.01483125,-0.07330375,0.0994875,-0.125,-0.25,0.0,-0.375,-0.375,0.25,-0.125,0.0,-0.0078125,-0.0859375,-0.109375,-0.06652875,0.02849625,0.02778625,-0.09806,-0.02862625,-0.1480725,0.19860875,0.0,-0.625,-0.5,-0.25,0.25,-0.25,-0.25,0.125,0.09375,-1.7421875,-1.0859375,-0.13346125,0.05555,0.05645,-0.196015,-0.03796375,-0.21972750000000002,0.30310000000000004,-0.5,-0.75,-1.0,-0.75,-1.375,-1.25,-0.5,-0.25,-0.5078125,-0.296875,-3.5390625,-0.20307000000000003,0.08129875,0.08615875,-0.2921675,-0.022767500000000003,-0.30096500000000004,0.40081749999999994,-0.625,-1.25,-1.0,-0.375,-0.5,-1.125,-0.625,-0.625,1.1015625,-0.59375,-3.390625,-0.27565625,0.10562125000000001,0.11646999999999999,-0.38639
I,-0.01593,-0.07556125,0.09729,-0.25,-0.25,-0.25,0.0,-0.875,-0.875,-0.5,-1.375,0.015625,0.0625,-0.078125,-0.0975725,0.038315,0.01522875,-0.0663675,-0.01599125,-0.07659875,0.0974125,-0.25,0.125,0.125,-0.125,-0.125,0.75,0.25,-0.125,0.0859375,-0.0234375,-0.3125,-0.097755,0.038185,0.01541875,-0.06613125,-0.0316775,-0.1487425,0.1964725,-0.25,-1.0,-1.125,-1.75,-2.25,-1.375,-0.625,-1.75,0.2109375,0.171875,-0.265625,-0.19616,0.0763775,0.03071625,-0.131325,-0.06036375,-0.30157625,0.390625,-0.625,-0.375,-0.75,-1.25,-2.0,-0.25,-0.5,-0.125,-0.25,-0.4375,-1.0625,-0.39325625000000003,0.1515725,0.061676249999999995,-0.26187875
I,-0.01660125,0.0935675,0.08435,0.5,0.5,-0.25,-0.5,-0.125,0.0,0.125,-0.125,-0.015625,-0.3359375,0.359375,-0.06553625,-0.0364225,0.03556875,0.0934825,-0.04473875,0.18554625000000002,0.1557,-0.625,0.25,1.75,1.0,-0.375,-0.875,-0.25,-3.125,-1.578125,-6.2890625,1.5625,-0.13092874999999998,-0.0699775,0.0724725,0.1876375,-0.04473875,0.30944875,0.36975125,0.0,-3.5,-4.5,-3.875,-1.375,2.125,-2.625,2.375,-19.1640625,15.9765625,-28.3515625,-0.18124375,-0.09897625,0.10077,0.29628750000000004,-0.11810375,0.20867875,0.2265625,0.5,0.75,0.0,3.125,2.875,0.75,-2.75,-0.75,5.0,60.234375,-18.609375,-0.161865,-0.1600725,0.056725000000000005,0.29193125
I,-0.01684625,-0.07489,0.09961,-0.25,-0.25,-0.5,-0.875,-1.25,-0.375,0.0,-0.125,0.0625,0.1640625,0.0390625,-0.09848,0.03795625,0.01429,-0.065445,-0.01794375,-0.07489,0.0986325,-0.125,0.25,0.25,0.125,0.5,1.0,-0.25,-0.25,0.0234375,-0.0546875,-0.203125,-0.09851875,0.03784125,0.01423625,-0.06546,-0.05188,-0.22113125,0.29882875,-0.875,-0.75,-0.875,0.0,-0.375,0.25,0.125,-0.125,0.6796875,1.28125,-1.1796875,-0.29679,0.11365499999999999,0.04209,-0.19456500000000002,-0.05896,-0.30047625,0.3963625,0.0,0.125,0.375,-0.25,0.25,0.125,0.125,0.125,0.2421875,-0.296875,-1.953125,-0.39758249999999995,0.15037625,0.0567625,-0.2571275
I,-0.017795555555555554,0.08523222222222222,0.07069222222222221,0.7777777777777778,-0.5555555555555556,-0.4444444444444444,0.0,0.0,0.4444444444444444,2.0,2.888888888888889,-0.09722222222222222,-0.2708333333333333,0.19444444444444445,-0.05978777777777777,-0.03555666666666667,0.031684444444444446,0.08064111111111111,-0.05197555555555555,0.18196555555555557,0.13623,-0.3333333333333333,-0.2222222222222222,0.2222222222222222,1.0,0.6666666666666666,-0.1111111111111111,0.0,2.111111111111111,-6.236111111111111,-3.1875,-1.9444444444444444,-0.11965666666666665,-0.06715222222222222,0.06253444444444445,0.16321555555555556,-0.018825555555555554,0.07194,0.09841555555555555,0.3333333333333333,0.0,-0.3333333333333333,-0.5555555555555556,-1.5555555555555556,-0.3333333333333333,-0.3333333333333333,-1.4444444444444444,0.04861111111111111,9.42361111111111,-5.965277777777778,-0.05869555555555555,-0.034348888888888894,0.022955555555555555,0.08481888888888889,-0.13558,0.12000888888888889,0.09293666666666667,-0.1111111111111111,1.1111111111111112,1.6666666666666667,-0.3333333333333333,-3.6666666666666665,2.111111111111111,-0.3333333333333333,-0.8888888888888888,1.8888888888888888,18.083333333333332,-0.3958333333333333,-0.10644444444444444,-0.10976111111111113,0.019612222222222222,0.15999444444444444
I,-0.019165,0.0994875,0.07733125,0.375,-0.25,-0.375,0.25,0.125,-0.125,0.125,-0.75,0.0,-0.1875,-0.09375,-0.04195375,-0.0106425,-0.05436,-0.10392,-0.048583749999999995,0.1935425,0.14428625,-0.875,-1.5,0.25,-0.125,-0.625,-1.5,-1.75,1.0,-5.2265625,-1.3125,4.2421875,-0.08294625,-0.02172875,-0.1063775,-0.20937250000000002,-0.01806625,0.0936275,0.0971675,1.625,0.25,1.25,2.375,1.25,2.25,-0.375,0.625,-11.40625,-1.4921875,-0.5625,-0.04079375,-0.008545,-0.0436175,-0.10948125,0.0019525000000000002,0.3176275,0.41534499999999996,-11.0,-7.5,-3.25,-5.875,-13.875,-1.625,-1.125,-14.75,13.0234375,10.015625,-16.40625,-0.16647375,-0.029137500000000004,-0.16870875000000002,-0.43929375000000004
I,-0.019287000000000002,0.07553699999999999,0.064746,-0.7,0.5,0.7,0.4,0.2,0.2,0.2,0.3,0.0375,-0.1,-0.0125,-0.090399,-0.04165,-0.006897,0.006818,-0.040527999999999995,0.155469,0.146387,-2.3,-0.9,-0.9,-0.2,0.1,-0.2,-0.3,0.3,-8.175,2.69375,6.8,-0.182776,-0.079669,-0.012542999999999999,0.009455,-0.062988,0.176465,0.238574,-1.3,-0.8,-0.9,-1.9,-11.2,-10.8,2.2,6.2,1.4125,-4.0125,-3.8125,-0.28226300000000004,-0.09823,-0.024609000000000002,0.008716,-0.016064000000000002,0.192919,0.21498999999999996,-3.5,-3.1,1.9,2.7,2.2,0.4,1.0,-2.3,4.71875,2.3625,-9.23125,-0.27620900000000004,-0.111187,-0.021936,0.029461000000000005
I,-0.019343076923076925,0.05784230769230769,0.04946692307692308,0.38461538461538464,0.07692307692307693,-0.46153846153846156,-0.38461538461538464,-0.23076923076923078,-0.15384615384615385,0.0,0.07692307692307693,-0.028846153846153848,-0.28846153846153844,0.15865384615384615,0.02132923076923077,0.019484615384615385,-0.026442307692307692,-0.06620923076923077,-0.039700769230769234,0.12357307692307692,0.09919615384615386,0.3076923076923077,0.6923076923076923,-0.46153846153846156,-0.46153846153846156,-0.07692307692307693,-0.15384615384615385,-0.38461538461538464,-0.5384615384615384,2.75,-2.168269230769231,-4.610576923076923,0.03693153846153847,0.037386923076923075,-0.05466923076923077,-0.1338646153846154,-0.09994692307692307,0.14738615384615386,0.13025846153846155,1.0,0.46153846153846156,-0.8461538461538461,-0.8461538461538461,0.23076923076923078,0.46153846153846156,0.23076923076923078,0.0,1.5769230769230769,16.6875,-8.586538461538462,0.03874846153846154,0.08266923076923077,-0.07269769230769231,-0.19907307692307694,-0.19178153846153848,0.20380153846153848,0.1450953846153846,-0.07692307692307693,0.15384615384615385,-0.6923076923076923,0.46153846153846156,0.6923076923076923,0.8461538461538461,0.5384615384615384,0.3076923076923077,-8.663461538461538,6.918269230769231,6.980769230769231,0.07162769230769231,0.13468153846153846,-0.08679692307692308,-0.2527138461538461
I,-0.01974,-0.08154285714285714,0.11384000000000001,-0.14285714285714285,-0.2857142857142857,-1.0,-1.1428571428571428,-1.4285714285714286,-1.0,-0.42857142857142855,-0.2857142857142857,0.044642857142857144,0.42857142857142855,0.0,0.09121285714285714,-0.021397142857142858,0.039490000000000004,-0.10035000000000001,-0.04017857142857143,-0.16036571428571428,0.2274685714285714,-0.2857142857142857,0.0,-0.14285714285714285,-0.7142857142857143,-0.42857142857142855,-0.5714285714285714,-0.2857142857142857,0.0,-0.08928571428571429,-0.017857142857142856,-0.25,0.18243428571428572,-0.04232285714285715,0.07918857142857143,-0.20071857142857144,-0.03920285714285714,-0.16845714285714286,0.22928285714285715,0.0,-0.5714285714285714,-0.2857142857142857,-0.14285714285714285,0.42857142857142855,-0.14285714285714285,-0.42857142857142855,-0.42857142857142855,0.29464285714285715,-0.48214285714285715,-1.5625,0.18172714285714284,-0.04292428571428571,0.07848285714285715,-0.20150428571428572,-0.07707857142857143,-0.32010428571428573,0.4506828571428571,-0.2857142857142857,0.14285714285714285,0.5714285714285714,1.1428571428571428,2.0,0.42857142857142855,-0.42857142857142855,-0.14285714285714285,-0.3392857142857143,-0.6696428571428571,-1.9464285714285714,0.36099714285714285,-0.08790714285714285,0.1567214285714286,-0.40487142857142855
I,-0.021158888888888887,0.08528666666666668,0.07085555555555556,0.2222222222222222,-0.1111111111111111,-0.8888888888888888,-0.6666666666666666,-0.5555555555555556,-0.1111111111111111,0.0,0.1111111111111111,0.020833333333333332,0.020833333333333332,0.08333333333333333,-0.06120444444444444,-0.03727222222222223,0.029642222222222223,0.07957,-0.04329444444444445,0.16769777777777778,0.13991888888888887,1.6666666666666667,-0.2222222222222222,-0.8888888888888888,-0.5555555555555556,-0.1111111111111111,0.1111111111111111,1.2222222222222223,3.3333333333333335,-0.4166666666666667,-0.9097222222222222,0.3125,-0.1223288888888889,-0.0743,0.05929888888888889,0.1593088888888889,-0.03629555555555555,0.19726666666666665,0.1641166666666667,-0.8888888888888888,-0.7777777777777778,-1.0,-1.1111111111111112,-1.0,-1.2222222222222223,0.1111111111111111,1.3333333333333333,-4.756944444444445,-2.2708333333333335,-13.333333333333334,-0.1172077777777778,-0.07049555555555556,0.05962444444444445,0.16468000000000002,-0.12868888888888888,0.1889644444444444,0.2324211111111111,-0.4444444444444444,2.111111111111111,6.0,4.0,0.7777777777777778,-0.2222222222222222,0.4444444444444444,-1.2222222222222223,3.5277777777777777,34.80555555555556,-14.79861111111111,-0.15968888888888888,-0.13172777777777778,0.05174444444444445,0.2560222222222222
I,-0.021701111111111112,0.08317111111111111,0.07194,-0.2222222222222222,-0.3333333333333333,-0.3333333333333333,-0.1111111111111111,-0.3333333333333333,-0.1111111111111111,0.0,-0.4444444444444444,-0.027777777777777776,0.0763888888888889,-0.14583333333333334,-0.03599666666666666,-0.005011111111111111,-0.04657666666666667,-0.09410888888888888,-0.04351111111111111,0.16628666666666667,0.1439888888888889,0.0,-0.8888888888888888,-0.3333333333333333,-0.1111111111111111,-0.1111111111111111,-0.1111111111111111,-0.3333333333333333,-0.3333333333333333,-0.1111111111111111,0.1597222222222222,0.3055555555555556,-0.07178444444444446,-0.010044444444444446,-0.09324222222222223,-0.18825333333333333,-0.08729333333333333,0.2592777777777778,0.2110466666666667,-2.0,-1.2222222222222223,0.0,-0.8888888888888888,-1.3333333333333333,-1.5555555555555556,-1.0,-2.5555555555555554,-1.9027777777777777,0.0625,1.6875,-0.1066411111111111,-0.014506666666666668,-0.13986555555555558,-0.28279666666666664,-0.06917333333333334,0.23464555555555558,0.2367622222222222,1.6666666666666667,-0.8888888888888888,-0.5555555555555556,0.2222222222222222,3.111111111111111,1.4444444444444444,3.888888888888889,2.5555555555555554,-17.9375,0.2013888888888889,0.4444444444444444,-0.10303444444444443,-0.006679999999999999,-0.12585444444444444,-0.2908866666666667
I,-0.022705,0.09454375,0.07867375,-0.75,-0.375,0.0,0.125,-0.125,-0.375,-0.375,-0.875,-0.0859375,-0.546875,-0.109375,-0.04039,-0.0073925,-0.05340625,-0.10530125,-0.03350875,0.108765,0.092895,-0.75,-2.25,-1.625,-1.0,-0.375,1.0,1.125,0.625,-0.1796875,0.8359375,-10.59375,-0.0473175,-0.00627125,-0.05449625,-0.101875,-0.134155,0.20660374999999997,0.24505499999999997,-0.375,1.125,2.0,1.25,0.625,-0.375,0.0,-0.875,5.84375,49.6875,-12.5390625,-0.15330375000000002,0.037515,-0.173935,-0.29227375,-0.26068125,0.2539675,0.12170500000000001,-1.875,-2.375,0.625,-2.25,-0.875,-1.625,-0.125,-1.625,-14.3515625,7.359375,6.1484375,-0.1222375,0.07752125,-0.1881025,-0.29033625
I,-0.023779,0.076904,0.060889000000000006,0.0,-0.5,-0.8,-0.2,-0.2,-0.2,-0.6,-1.5,0.025,-0.0375,0.06875,-0.033075,-0.0035340000000000002,-0.044171,-0.083331,-0.05112300000000001,0.155615,0.12197200000000001,-1.0,0.6,-0.9,-0.7,-0.3,-0.5,-0.6,-3.7,-0.3,-0.31875,-0.225,-0.066473,-0.00722,-0.08818999999999999,-0.16659600000000002,-0.07231499999999999,0.15366200000000002,0.13164099999999998,-2.0,-1.9,-1.6,-0.3,-1.3,-0.7,-1.1,-1.7,-4.5625,7.93125,-8.4875,-0.070526,0.0016910000000000002,-0.088739,-0.164777,-0.138965,0.18803799999999998,0.17421899999999998,0.3,0.5,1.4,0.6,2.3,0.2,-0.6,-2.1,-0.31875,24.43125,-2.91875,-0.10593299999999999,0.036506,-0.140375,-0.240259
I,-0.025146,0.07876,0.055420000000000004,0.0,0.0,0.0,0.0,0.0,0.0,0.0,0.0,-0.35625,-1.225,0.68125,-0.05625,-0.037975999999999996,0.025995,0.068689,-0.054981,0.184277,0.15390600000000002,-0.4,-0.7,-1.5,-2.1,-1.0,-2.7,-2.6,-2.1,-9.4,0.8,-5.00625,-0.110931,-0.068469,0.05051300000000001,0.143011,-0.10351600000000001,0.201513,0.170361,0.5,0.5,-3.2,-2.1,-0.9,-1.4,-1.6,-1.9,7.78125,31.63125,-7.375,-0.10917400000000002,-0.091052,0.030212,0.13734700000000002,-0.21518500000000002,0.272266,0.15107500000000001,-0.2,1.3,-2.0,-0.7,-0.3,-0.1,0.5,-2.4,-1.34375,22.625,6.2625,-0.22031900000000001,-0.222168,0.034228999999999996,0.24677699999999997
I,-0.02764875,0.098205,0.0753175,-0.625,-0.75,-1.375,-1.125,-0.375,-0.125,-0.125,0.0,-0.0703125,-0.0546875,-0.0703125,-0.07023625,-0.045365,0.03236375,0.087105,-0.06897,0.2056875,0.13653625000000003,0.25,1.25,-1.125,-0.75,-0.25,0.5,2.125,1.875,-1.515625,-4.8671875,1.2265625,-0.14065625,-0.08914875,0.06584999999999999,0.17444625,-0.06408625,0.180115,0.19714375,2.875,1.875,1.0,0.75,-1.0,0.125,-1.625,-0.5,-10.078125,9.5859375,-12.0546875,-0.13649,-0.08631125,0.05319875,0.183205,-0.1875,0.29547125,0.32220499999999996,-0.25,0.25,2.0,2.375,0.875,-0.25,-2.125,-1.75,3.1640625,48.4375,-13.5859375,-0.259895,-0.21029750000000003,0.07038,0.36493625
I,-0.03002875,0.09777875,0.07775875,-1.125,-0.375,0.25,0.0,0.0,0.125,0.125,-0.25,-0.0078125,-0.1953125,0.0546875,-0.03881875,-0.00338,-0.05547375,-0.10502625,-0.035095,0.10809375,0.0712275,0.5,-1.25,-2.875,-1.875,-1.875,-1.375,-3.125,1.375,-0.59375,-0.7578125,-2.3359375,-0.03926125,-0.00313625,-0.05549625,-0.10485875,-0.08380125,0.1514275,0.1808475,-0.375,-0.5,-1.75,-1.5,-0.25,-0.625,-0.125,0.0,-2.8125,8.953125,-13.03125,-0.09303249999999999,0.01042875,-0.1039125,-0.20721499999999998,-0.2672725,0.30163625,0.2678225,0.25,0.625,-0.75,1.375,3.625,-0.875,-1.75,-1.125,0.6328125,34.234375,-3.5703125,-0.17952,0.07460875,-0.2289025,-0.39974250000000006
I,-0.03244333333333334,0.0901688888888889,0.060329999999999995,-0.6666666666666666,-0.6666666666666666,0.3333333333333333,0.0,0.4444444444444444,-0.1111111111111111,-0.4444444444444444,0.3333333333333333,-0.1111111111111111,0.034722222222222224,0.19444444444444445,-0.06471777777777778,-0.046664444444444446,0.025601111111111113,0.07296444444444444,-0.06803333333333333,0.17811333333333332,0.11556000000000001,-2.111111111111111,-0.4444444444444444,-0.5555555555555556,-0.5555555555555556,-0.7777777777777778,-0.6666666666666666,-2.888888888888889,0.0,-1.2708333333333333,-3.7083333333333335,2.576388888888889,-0.13061444444444445,-0.09173666666666667,0.051771111111111115,0.1456977777777778,-0.09418333333333334,0.24213222222222225,0.24701555555555554,1.2222222222222223,1.5555555555555556,1.2222222222222223,0.7777777777777778,-1.8888888888888888,1.0,-0.5555555555555556,2.2222222222222223,-18.46527777777778,5.715277777777778,-6.402777777777778,-0.1938133333333333,-0.12630888888888891,0.06829888888888888,0.23003444444444446,-0.1360677777777778,0.22856888888888888,0.1924366666666667,2.5555555555555554,2.5555555555555554,0.6666666666666666,-0.5555555555555556,1.0,0.6666666666666666,-1.1111111111111112,1.0,3.5,30.916666666666668,-4.291666666666667,-0.1945066666666667,-0.15285222222222222,0.041015555555555555,0.21952333333333332
I,-0.03320375,0.09350625,0.07727,0.0,0.375,0.625,-0.125,0.125,-0.125,0.0,0.0,-0.1796875,0.0,0.0234375,-0.0478825,-0.00444,-0.0548025,-0.10154,-0.04303,0.09869375,0.077515,1.125,-2.0,-2.75,-1.5,-1.375,-0.75,0.75,2.5,-0.484375,-0.7421875,0.8125,-0.04752375,-0.005195,-0.05435125,-0.10191375,-0.14831625,0.23046875,0.2457275,1.375,1.25,0.25,1.625,5.5,-0.75,-4.375,-1.375,-2.2265625,36.890625,-20.375,-0.14674375,0.0250625,-0.16367375,-0.30274875,-0.2698975,0.288635,0.24029625,1.125,1.0,3.5,10.875,5.75,0.75,-0.5,1.375,-7.4453125,32.328125,6.8671875,-0.1708225,0.09209375,-0.2438275,-0.39098374999999996
I,-8.436363636363637E-4,-0.05366636363636364,0.07168818181818182,-0.09090909090909091,0.0,0.09090909090909091,-0.6363636363636364,-0.36363636363636365,0.6363636363636364,0.09090909090909091,-0.09090909090909091,-0.11931818181818182,-0.017045454545454544,0.03409090909090909,0.08112090909090909,-0.026306363636363638,0.010037272727272726,-0.029840909090909088,-1.7727272727272728E-4,-0.05273454545454546,0.07115545454545455,-0.2727272727272727,0.18181818181818182,0.09090909090909091,-0.09090909090909091,0.2727272727272727,0.2727272727272727,-0.2727272727272727,-0.6363636363636364,0.30113636363636365,-0.7954545454545454,-0.045454545454545456,0.08125454545454545,-0.026295454545454545,0.00956,-0.02965727272727273,0.001909090909090909,-0.10502454545454545,0.14719454545454547,0.0,0.45454545454545453,0.5454545454545454,0.36363636363636365,0.36363636363636365,0.09090909090909091,-0.09090909090909091,0.0,-0.5113636363636364,-1.3181818181818181,-1.8920454545454546,0.1623481818181818,-0.05341727272727273,0.015380909090909091,-0.060091818181818184,0.019665454545454545,-0.15585000000000002,0.2170190909090909,-0.18181818181818182,-0.2727272727272727,-0.8181818181818182,-0.5454545454545454,-0.5454545454545454,0.18181818181818182,-0.18181818181818182,-0.09090909090909091,0.19318181818181818,0.7215909090909091,-0.16477272727272727,0.24324181818181814,-0.07978363636363638,0.022344545454545454,-0.09136999999999999
I,-9.8E-5,0.074756,0.067871,0.2,0.2,-0.2,0.1,0.0,0.1,-0.1,0.1,0.26875,-0.16875,0.0375,-0.056659,-0.025061,-0.031293,-0.071997,-0.011377000000000002,0.165722,0.141846,0.3,0.7,0.2,0.5,-0.1,-0.6,1.6,0.7,0.25,1.23125,-4.7,-0.115411,-0.050525,-0.06312899999999999,-0.141937,-0.049024,0.208057,0.221045,0.1,0.7,-0.1,0.0,-0.1,-0.1,3.1,2.3,0.55625,18.8125,-17.2875,-0.18511899999999998,-0.050641000000000005,-0.113434,-0.20074500000000003,-0.176612,0.257422,0.22099599999999997,2.1,1.9,0.5,1.4,-0.4,-1.0,-0.4,0.2,-3.0,27.18125,-4.3125,-0.237378,-0.020532,-0.186651,-0.261499
I,0.0,0.0,0.0,-0.2,0.1,-0.1,-0.3,-0.1,-0.2,-0.3,0.0,0.0,0.0,0.0,0.0,0.0,0.0,0.0,-0.034668,-0.11147499999999999,0.157862,-0.2,-0.4,-0.6,-0.7,-0.8,-0.9,-0.4,-0.7,-0.1125,-0.05625,-0.3625,0.187714,-0.056726,0.027106,-0.02843,-0.033545000000000005,-0.111035,0.15981399999999998,-0.2,0.3,1.2,1.3,1.0,0.0,-0.5,-2.1,0.10625,-0.6125,-1.13125,0.18758,-0.056940000000000004,0.026166000000000002,-0.029779,-0.027344,-0.11440399999999999,0.159912,-0.5,0.3,-1.0,-1.9,-1.9,-0.5,0.1,-0.6,0.275,0.10625,-0.40625,0.18758,-0.056597999999999996,0.025458,-0.031006
I,0.0,0.0,0.0,-0.2222222222222222,0.2222222222222222,0.2222222222222222,-0.4444444444444444,0.2222222222222222,0.0,-0.2222222222222222,-0.1111111111111111,0.0,0.0,0.0,0.0,0.0,0.0,0.0,-0.013617777777777777,-0.12684444444444443,0.18115222222222224,0.1111111111111111,0.0,0.6666666666666666,0.4444444444444444,0.5555555555555556,0.3333333333333333,0.5555555555555556,0.8888888888888888,-0.013888888888888888,-0.18055555555555555,0.7569444444444444,0.1567588888888889,-0.053595555555555556,-0.04026888888888888,0.14252333333333334,-0.028048888888888887,-0.18885555555555555,0.27186444444444446,-0.3333333333333333,-0.8888888888888888,-1.4444444444444444,-2.2222222222222223,-1.5555555555555556,-0.8888888888888888,-0.8888888888888888,-0.5555555555555556,-0.5277777777777778,1.2083333333333333,1.7083333333333333,0.23180444444444445,-0.08001,-0.05740111111111111,0.21834222222222222,-0.041883333333333335,-0.2493477777777778,0.3628466666666667,-0.2222222222222222,-0.2222222222222222,-0.8888888888888888,-0.4444444444444444,0.3333333333333333,-0.2222222222222222,-0.5555555555555556,-1.2222222222222223,-0.4444444444444444,1.125,-0.5902777777777778,0.3089055555555556,-0.10992555555555555,-0.07548111111111111,0.29037111111111114
I,0.0,0.0,0.0,-0.2727272727272727,-0.18181818181818182,-0.6363636363636364,-1.6363636363636365,-1.5454545454545454,-0.09090909090909091,-0.18181818181818182,-2.909090909090909,0.0,0.0,0.0,0.0,0.0,0.0,0.0,-0.01185181818181818,-0.11159454545454546,0.14337727272727274,0.09090909090909091,0.36363636363636365,0.7272727272727273,1.0,1.0909090909090908,0.45454545454545453,0.6363636363636364,0.2727272727272727,-0.011363636363636364,-0.30113636363636365,-0.3465909090909091,0.049432727272727274,-0.02236090909090909,-0.05422727272727273,0.16483454545454546,-0.01478181818181818,-0.10844272727272729,0.1430672727272727,-0.09090909090909091,0.09090909090909091,0.6363636363636364,-0.18181818181818182,-0.09090909090909091,-0.09090909090909091,-0.2727272727272727,-0.45454545454545453,0.6306818181818182,-0.7102272727272727,-0.2784090909090909,0.04988272727272727,-0.022371818181818184,-0.05348909090909091,0.1649390909090909,-0.006924545454545455,-0.10839818181818182,0.14599636363636365,-0.09090909090909091,-0.2727272727272727,-0.2727272727272727,-0.2727272727272727,-0.18181818181818182,0.09090909090909091,-0.09090909090909091,-0.36363636363636365,0.42613636363636365,-0.017045454545454544,-1.6363636363636365,0.05169090909090909,-0.020297272727272726,-0.05377181818181819,0.16456181818181817
I,0.0,0.0,0.0,-0.7,-0.2,1.0,0.3,0.1,0.1,0.2,-2.5,0.0,0.0,0.0,0.0,0.0,0.0,0.0,-0.05249,0.15708,0.133789,-0.1,-0.9,0.0,-1.2,0.1,0.5,0.0,-1.1,-14.50625,-2.43125,2.075,-0.066901,-0.014452999999999999,-0.077765,-0.171082,-0.001562,0.139063,0.169971,-3.0,-1.7,-2.7,0.4,7.3,-3.0,-3.9,-2.9,7.7125,7.1,-8.65625,-0.069372,-0.010676,-0.074084,-0.17201499999999997,-0.050439,0.141504,0.128027,-2.5,-1.2,-1.8,-3.7,-4.4,-1.3,-2.0,0.8,-0.2375,-1.4125,2.60625,-0.071746,-0.0021060000000000002,-0.085034,-0.16619799999999998
I,0.0,0.0,0.0,0.0,-0.2222222222222222,-0.1111111111111111,-0.6666666666666666,-0.2222222222222222,0.6666666666666666,0.1111111111111111,-0.1111111111111111,0.0,0.0,0.0,0.0,0.0,0.0,0.0,0.0017366666666666667,-0.060004444444444444,0.09136333333333332,0.0,-0.1111111111111111,0.0,0.2222222222222222,0.4444444444444444,-0.3333333333333333,-0.7777777777777778,-0.3333333333333333,-0.006944444444444444,-0.14583333333333334,-0.08333333333333333,0.09162,-0.02731,0.015564444444444445,-0.05443666666666666,0.0,0.0,0.0,-0.4444444444444444,-0.7777777777777778,-0.8888888888888888,-1.0,-1.0,-1.3333333333333333,-0.5555555555555556,0.3333333333333333,0.0,0.0,0.0,0.0,0.0,0.0,0.0,0.0,0.0,0.0,-1.1111111111111112,-0.6666666666666666,-0.2222222222222222,-0.5555555555555556,-0.8888888888888888,-0.3333333333333333,0.0,-0.5555555555555556,0.0,0.0,0.0,0.0,0.0,0.0,0.0
I,0.0,0.0,0.0,0.0,-0.2727272727272727,-0.7272727272727273,-0.9090909090909091,-1.0,-0.18181818181818182,-0.18181818181818182,0.36363636363636365,0.0,0.0,0.0,0.0,0.0,0.0,0.0,-0.017045454545454544,-0.09987636363636364,0.15052454545454544,-0.36363636363636365,-0.2727272727272727,-0.09090909090909091,-0.09090909090909091,-0.18181818181818182,-0.09090909090909091,-0.18181818181818182,-0.8181818181818182,0.022727272727272728,0.09659090909090909,-0.125,0.11409090909090908,-0.040649090909090906,-0.03375818181818182,0.13132545454545455,-0.025834545454545454,-0.14954636363636362,0.2262518181818182,-0.09090909090909091,0.09090909090909091,0.45454545454545453,-0.09090909090909091,0.45454545454545453,0.7272727272727273,0.45454545454545453,0.5454545454545454,0.03977272727272727,0.3806818181818182,-0.8181818181818182,0.1719027272727273,-0.061467272727272725,-0.050675454545454544,0.19615545454545452,-0.028364545454545455,-0.19797636363636364,0.30118,-0.2727272727272727,-1.0909090909090908,-1.2727272727272727,-1.3636363636363635,-1.4545454545454546,-0.5454545454545454,-0.9090909090909091,-0.45454545454545453,0.1875,-0.10795454545454546,-0.17045454545454544,0.2309727272727273,-0.08174272727272727,-0.06771636363636363,0.26001454545454544
I,0.0,0.0,0.0,0.0,0.0,-0.2,-0.1,0.0,-0.3,-0.5,1.0,0.0,0.0,0.0,0.0,0.0,0.0,0.0,-0.019775,-0.059326000000000004,0.07749,-0.2,0.0,0.1,-0.3,-0.2,0.4,0.0,-0.3,0.075,-0.01875,0.0625,0.060297,-0.027954,-0.017072,0.072742,-0.059814,-0.17880800000000002,0.23476600000000003,-0.1,-0.5,-0.4,0.1,-1.0,-0.7,-0.8,2.5,0.53125,0.1,0.175,0.18090299999999998,-0.08368499999999998,-0.051129,0.218304,-0.062012,-0.172217,0.234863,-0.2,-0.6,-0.9,-1.4,-1.5,-0.9,-0.7,-1.2,-0.4125,-0.15625,-1.44375,0.181036,-0.083954,-0.05141,0.218012
I,0.0,0.0,0.0,0.0,0.0,0.0,0.0,0.0,0.0,0.0,0.0,0.0,0.0,0.0,0.0,0.0,0.0,0.0,-0.02370076923076923,0.06133538461538461,0.046762307692307686,0.07692307692307693,0.15384615384615385,0.23076923076923078,0.23076923076923078,0.6153846153846154,0.15384615384615385,0.07692307692307693,0.5384615384615384,3.168269230769231,5.4326923076923075,-3.1923076923076925,-0.03904384615384615,-0.009911538461538461,-0.03510923076923077,-0.05533999999999999,-0.10411692307692308,0.16056923076923077,0.0987823076923077,-2.4615384615384617,-1.9230769230769231,0.07692307692307693,-1.2307692307692308,-1.1538461538461537,-1.0,-2.923076923076923,-4.769230769230769,-1.8701923076923077,7.649038461538462,-3.9086538461538463,-0.11454,-0.002887692307692308,-0.1265253846153846,-0.15531076923076922,-0.18610999999999997,0.22979230769230768,0.1394230769230769,-2.0,-2.6923076923076925,-4.461538461538462,-4.846153846153846,-2.5384615384615383,-0.38461538461538464,-0.5384615384615384,-3.6923076923076925,-5.0048076923076925,-3.081730769230769,-5.197115384615385,-0.14971923076923077,0.011605384615384616,-0.1578269230769231,-0.21731384615384616
I,0.0,0.0,0.0,0.0,0.16666666666666666,0.08333333333333333,0.16666666666666666,0.08333333333333333,0.08333333333333333,-0.08333333333333333,-0.08333333333333333,0.0,0.0,0.0,0.0,0.0,0.0,0.0,0.00179,-0.0470375,0.06815583333333333,0.08333333333333333,0.16666666666666666,-0.3333333333333333,-0.6666666666666666,0.0,0.25,0.3333333333333333,-0.08333333333333333,0.046875,-0.13020833333333334,-0.24479166666666666,0.07653333333333333,-0.023778333333333332,0.006154166666666666,-0.02199833333333333,0.005655833333333333,-0.0927325,0.13586416666666667,-0.25,-0.6666666666666666,-0.8333333333333334,-0.75,-0.5833333333333334,-0.3333333333333333,-0.25,-0.3333333333333333,0.22395833333333334,0.078125,-0.5208333333333334,0.15265416666666667,-0.047591666666666664,0.011871666666666668,-0.04548166666666666,0.009888333333333332,-0.13806083333333333,0.20357250000000002,-0.4166666666666667,-0.8333333333333334,-0.8333333333333334,-1.25,-1.0833333333333333,-0.3333333333333333,-0.16666666666666666,-0.3333333333333333,0.171875,-0.5208333333333334,0.140625,0.229035,-0.07082666666666666,0.017008333333333334,-0.06882166666666667
I,0.0,0.0,0.0,0.1,0.5,0.1,-0.1,0.0,-0.1,0.1,0.1,0.0,0.0,0.0,0.0,0.0,0.0,0.0,-0.015233999999999998,0.155127,0.130517,2.8,2.7,0.5,-0.4,-0.3,0.1,0.1,4.9,-0.56875,-1.73125,-0.9,-0.05326500000000001,-0.018231,-0.080066,-0.174427,-0.045752,0.163476,0.150928,0.1,1.9,2.0,0.4,-0.7,-1.4,0.4,-0.9,-6.69375,10.7,-17.9375,-0.069617,-0.006977,-0.079547,-0.16964100000000001,-0.08915999999999999,0.11435599999999999,0.114062,-0.6,-1.9,-1.9,-2.3,-0.8,-0.1,-0.2,1.0,1.60625,19.875,-1.35625,-0.07089799999999999,0.027332000000000002,-0.095496,-0.15846
I,0.0,0.0,0.0,0.18181818181818182,0.36363636363636365,-0.45454545454545453,-0.45454545454545453,-0.18181818181818182,-0.18181818181818182,-0.09090909090909091,-0.09090909090909091,0.0,0.0,0.0,0.0,0.0,0.0,0.0,-0.02179545454545455,0.13960363636363635,0.11448,-0.09090909090909091,-0.09090909090909091,-1.1818181818181819,-0.2727272727272727,0.09090909090909091,0.0,-0.2727272727272727,-0.5454545454545454,-0.5738636363636364,-2.659090909090909,-0.36363636363636365,-0.1635681818181818,-0.07418,-0.01970909090909091,-0.02039727272727273,-0.015491818181818183,0.07976727272727273,0.06334363636363637,-1.0,-1.0909090909090908,-1.0,0.09090909090909091,-0.7272727272727273,-0.5454545454545454,-0.8181818181818182,-2.8181818181818183,1.2272727272727273,0.75,-4.988636363636363,-0.08183727272727272,-0.03813545454545454,-0.009482727272727273,-0.004882727272727273,-0.08855636363636364,0.18821000000000002,0.1627309090909091,-2.3636363636363638,-1.0909090909090908,0.0,0.18181818181818182,-0.2727272727272727,-1.8181818181818181,0.18181818181818182,-0.09090909090909091,-0.5454545454545454,15.073863636363637,-16.573863636363637,-0.24002909090909091,-0.11158272727272726,-0.06541272727272728,0.005126363636363636
I,0.0,0.0,0.0,0.2222222222222222,0.1111111111111111,0.5555555555555556,0.4444444444444444,0.5555555555555556,0.1111111111111111,0.1111111111111111,1.0,0.0,0.0,0.0,0.0,0.0,0.0,0.0,-0.028863333333333335,0.08724,0.06374777777777778,2.111111111111111,-1.3333333333333333,-1.2222222222222223,-1.0,-0.5555555555555556,-0.1111111111111111,-0.7777777777777778,2.888888888888889,-0.7638888888888888,-1.9444444444444444,0.6597222222222222,-0.06248666666666666,-0.04109666666666666,0.028402222222222225,0.07710777777777778,-0.07590000000000001,0.18462444444444445,0.16932444444444444,-2.111111111111111,-0.5555555555555556,-1.4444444444444444,0.1111111111111111,-0.4444444444444444,-2.6666666666666665,-1.0,-0.7777777777777778,-11.722222222222221,7.652777777777778,-14.715277777777779,-0.11752,-0.0749711111111111,0.04868555555555555,0.16606333333333334,-0.14604999999999999,0.18972333333333335,0.19211111111111112,0.3333333333333333,1.3333333333333333,0.6666666666666666,1.0,0.3333333333333333,0.5555555555555556,-2.0,-0.1111111111111111,2.3402777777777777,34.90277777777778,-5.409722222222222,-0.16586,-0.14955666666666667,0.04149777777777778,0.24384222222222218
I,0.0,0.0,0.0,0.625,0.75,0.75,-0.375,0.0,0.25,0.125,2.125,0.0,0.0,0.0,0.0,0.0,0.0,0.0,-0.02795375,0.09423875,0.06524625,-1.75,-2.75,-1.75,-0.875,0.25,0.125,-3.875,-4.0,-2.9609375,-5.703125,1.109375,-0.03459875,-0.0082625,-0.0526125,-0.10767375,-0.01080375,0.08361875,0.11383,0.125,-1.625,-2.375,-2.625,-3.75,-4.375,-2.25,1.25,-10.5859375,-2.296875,2.8046875,-0.0353475,-0.01114625,-0.041985,-0.111755,-0.013061250000000002,0.31426875,0.33087125,-1.875,-3.0,-1.625,0.5,-0.875,-1.125,-1.0,-0.375,4.4453125,35.2578125,-10.1953125,-0.138915,-0.00788875,-0.17668124999999998,-0.446555
I,0.0010855555555555555,0.08523222222222222,0.0733511111111111,0.1111111111111111,0.4444444444444444,-0.3333333333333333,-0.3333333333333333,0.1111111111111111,0.0,0.0,0.6666666666666666,-0.06944444444444445,0.041666666666666664,-0.0625,-0.09739888888888888,-0.04568111111111111,-0.01085111111111111,-0.025601111111111113,-0.02170222222222222,0.19395555555555555,0.14794888888888888,-1.6666666666666667,0.2222222222222222,0.4444444444444444,-0.2222222222222222,-0.2222222222222222,-0.8888888888888888,-3.0,-0.7777777777777778,1.2916666666666667,-0.5833333333333334,-3.9375,-0.1944511111111111,-0.09281333333333334,-0.023227777777777778,-0.04919444444444444,-0.028048888888888887,0.15787777777777778,0.16135,-0.8888888888888888,-0.5555555555555556,-0.6666666666666666,-0.1111111111111111,2.5555555555555554,3.0,1.8888888888888888,0.7777777777777778,-0.3680555555555556,18.90972222222222,-14.319444444444445,-0.1978288888888889,-0.08121111111111111,-0.04537666666666667,-0.039801111111111113,-0.13525444444444445,0.21196777777777778,0.1713866666666667,-0.1111111111111111,-0.8888888888888888,-2.3333333333333335,-0.1111111111111111,-1.2222222222222223,-1.3333333333333333,-0.2222222222222222,-0.1111111111111111,1.25,29.26388888888889,2.4791666666666665,-0.28151333333333334,-0.11518111111111111,-0.12074777777777777,-0.06313777777777778
I,0.003743333333333333,0.07926444444444444,0.07823333333333332,-0.1111111111111111,0.1111111111111111,-0.3333333333333333,0.0,0.1111111111111111,0.0,-0.5555555555555556,-0.4444444444444444,-0.006944444444444444,0.006944444444444444,-0.09027777777777778,-0.09988111111111111,-0.04205333333333333,-0.00727,-0.023444444444444445,-0.00434,0.17138666666666666,0.14653888888888889,-1.0,-0.4444444444444444,0.7777777777777778,0.0,1.0,0.1111111111111111,-0.1111111111111111,-1.4444444444444444,1.7569444444444444,-3.486111111111111,-6.041666666666667,-0.20016777777777778,-0.08510333333333334,-0.015082222222222223,-0.04303666666666667,-0.03852,0.2712144444444444,0.2557511111111111,0.8888888888888888,1.4444444444444444,1.7777777777777777,0.1111111111111111,-1.4444444444444444,-3.6666666666666665,-0.7777777777777778,0.2222222222222222,-3.923611111111111,3.6944444444444446,-31.25,-0.30424666666666667,-0.12979444444444443,-0.030348888888888887,-0.02761555555555556,-0.14756888888888892,0.27007333333333333,0.29899,-0.4444444444444444,-0.8888888888888888,-2.2222222222222223,-2.3333333333333335,-0.6666666666666666,0.4444444444444444,-2.888888888888889,-0.1111111111111111,4.826388888888889,47.951388888888886,-20.5,-0.40084444444444445,-0.16009444444444443,-0.10552333333333334,0.0015666666666666667
I,0.009277,0.074707,0.068506,-0.3,-1.2,-0.8,-0.3,-0.4,-0.4,-0.2,0.0,0.01875,-0.33125,-1.51875,-0.035236,-0.020080999999999998,-0.034064,-0.084827,-0.007666000000000001,0.162598,0.13793899999999998,0.7,-0.1,-2.1,-1.4,-0.7,-0.4,-0.4,-0.8,2.79375,3.86875,-13.9875,-0.08350199999999999,-0.034308,-0.075415,-0.161761,-0.068408,0.139795,0.127295,-0.3,0.2,-0.9,-0.7,-0.4,-0.3,-1.8,-0.8,0.9625,16.55625,-16.35,-0.09907200000000001,-0.006543,-0.08971599999999999,-0.148596,-0.249805,0.24174800000000002,0.16762700000000003,-0.1,1.4,2.7,3.1,3.8,1.5,-0.5,0.5,-1.925,31.6125,-4.675,-0.18875100000000003,0.044318,-0.208899,-0.280622
I,0.010335,-0.04610166666666667,0.06758666666666667,-0.08333333333333333,0.0,-0.08333333333333333,-0.08333333333333333,0.08333333333333333,0.3333333333333333,0.25,-0.08333333333333333,-0.078125,0.026041666666666668,-0.07291666666666667,0.015665833333333334,-0.010238333333333334,0.023173333333333334,-0.07783,0.0,0.0,0.0,-0.5,-0.5,-0.6666666666666666,-1.1666666666666667,-1.25,-0.9166666666666666,-0.5833333333333334,-0.5,0.0,0.0,0.0,0.0,0.0,0.0,0.0,0.01969416666666667,-0.09423833333333333,0.13496833333333333,-0.08333333333333333,-0.25,0.16666666666666666,0.3333333333333333,0.5833333333333334,0.3333333333333333,0.16666666666666666,0.08333333333333333,0.21354166666666666,-0.005208333333333333,-0.2708333333333333,0.030721666666666664,-0.019633333333333332,0.04603583333333333,-0.15598,0.03194166666666667,-0.13269083333333334,0.20418250000000002,-0.25,0.3333333333333333,0.16666666666666666,0.5,0.0,-0.08333333333333333,-0.08333333333333333,-0.25,0.0,-0.84375,-1.5885416666666667,0.04443833333333333,-0.03132583333333334,0.0688475,-0.23411083333333335
Julia,-0.0011857142857142858,-0.028982857142857144,0.06515071428571428,-0.35714285714285715,-0.35714285714285715,-0.35714285714285715,0.07142857142857142,0.07142857142857142,0.21428571428571427,0.2857142857142857,-0.42857142857142855,-0.022321428571428572,-0.022321428571428572,-0.026785714285714284,0.05419071428571428,-0.012045714285714286,-0.00878,0.04407642857142857,-0.00143,-0.02936642857142857,0.065325,-0.07142857142857142,1.2142857142857142,1.2142857142857142,0.0,-0.07142857142857142,0.14285714285714285,0.5714285714285714,-0.5,0.125,0.07589285714285714,0.049107142857142856,0.05416428571428571,-0.012106428571428572,-0.008806428571428571,0.044085,-0.004010714285714286,-0.06361571428571429,0.130825,-0.9285714285714286,-0.7142857142857143,-1.7142857142857142,-0.21428571428571427,0.2857142857142857,0.5714285714285714,0.35714285714285715,-0.5,-5.446428571428571,-0.1875,4.352678571428571,0.10628,-0.027334999999999998,-0.019247857142857143,0.089395,-0.007254285714285714,-0.08321714285714286,0.11227,-0.21428571428571427,-0.7857142857142857,-0.5,0.0,0.42857142857142855,-0.2857142857142857,0.0,-0.42857142857142855,-0.5,1.1696428571428572,-4.799107142857143,0.1069157142857143,-0.037837142857142854,-0.023707857142857145,0.08355714285714286
Julia,-0.001465,0.049951,0.08569299999999999,0.7,1.5,0.6,0.5,-0.1,0.1,-0.4,-0.3,-0.025,0.4625,-0.55625,-0.096472,-0.026221,-4.3299999999999995E-4,0.002539,-0.011816,0.064746,0.08418,-0.9,-2.0,-2.4,-2.4,-6.9,-4.8,-0.9,0.0,2.45,1.65625,-4.70625,-0.09509300000000001,-0.030114999999999996,-0.004004,0.005896,-0.108887,0.18457099999999999,0.216894,-2.1,-1.1,2.9,3.0,1.2,0.6,-0.4,-0.9,4.875,15.64375,-14.0,-0.274859,-0.103162,-0.042035,0.045166,-0.15947299999999998,0.213378,0.278663,3.2,1.0,-2.6,-1.2,-4.1,-3.4,0.4,-0.7,8.78125,1.75,-0.34375,-0.36309199999999997,-0.136573,-0.074549,0.06295700000000001
Julia,-0.0018958823529411765,-0.03389235294117647,0.046788823529411765,-0.058823529411764705,0.058823529411764705,0.11764705882352941,0.17647058823529413,0.11764705882352941,0.11764705882352941,0.058823529411764705,0.11764705882352941,-0.08088235294117647,0.011029411764705883,0.03676470588235294,0.055624705882352944,-0.017839999999999998,0.0031129411764705883,-0.006157647058823529,-0.0017235294117647058,-0.035098823529411766,0.046472941176470585,-0.29411764705882354,-0.11764705882352941,0.23529411764705882,0.29411764705882354,0.11764705882352941,0.0,-0.11764705882352941,-1.411764705882353,-0.23529411764705882,0.051470588235294115,-0.1213235294117647,0.055473529411764706,-0.01821352941176471,0.0032705882352941176,-0.006351176470588235,-0.003360588235294118,-0.06812941176470588,0.09214176470588234,-0.11764705882352941,-0.23529411764705882,-0.5294117647058824,-0.5294117647058824,-0.11764705882352941,0.0,-0.11764705882352941,-0.23529411764705882,0.40808823529411764,0.2977941176470588,-0.31985294117647056,0.11081470588235293,-0.03643117647058823,0.006656470588235295,-0.013744117647058823,-0.005457058823529411,-0.13881529411764706,0.18882176470588236,-0.17647058823529413,-0.058823529411764705,0.35294117647058826,0.5882352941176471,0.4117647058823529,-0.058823529411764705,-0.5294117647058824,-0.4117647058823529,-0.1948529411764706,0.48161764705882354,-0.9816176470588235,0.22198470588235295,-0.07121,0.01244705882352941,-0.029293529411764704
Julia,-0.001926111111111111,-0.024766666666666666,0.049615,0.0,0.05555555555555555,0.1111111111111111,-0.2222222222222222,-0.1111111111111111,-0.05555555555555555,0.2222222222222222,0.0,0.034722222222222224,-0.020833333333333332,-0.010416666666666666,0.01823611111111111,-0.005367777777777778,-0.011474444444444445,0.05092388888888889,-0.002278888888888889,-0.024305555555555556,0.049967222222222225,-0.16666666666666666,-0.2222222222222222,-0.5555555555555556,-0.5,-0.16666666666666666,0.0,0.16666666666666666,-0.16666666666666666,0.003472222222222222,-0.024305555555555556,-0.04861111111111111,0.01828,-0.005340555555555555,-0.011481666666666666,0.05091,-0.0030922222222222223,-0.05078166666666666,0.09841611111111111,-0.05555555555555555,-0.16666666666666666,-0.1111111111111111,-0.5,-0.16666666666666666,0.0,0.0,0.3888888888888889,-2.0347222222222223,-2.017361111111111,1.9756944444444444,0.03542388888888889,-0.010064444444444444,-0.02433611111111111,0.10196277777777778,-5.388888888888888E-5,-0.06564666666666667,0.08997944444444445,-0.5,-0.4444444444444444,-0.5,-0.3888888888888889,-0.4444444444444444,0.05555555555555555,-0.1111111111111111,-0.2777777777777778,-1.6145833333333333,0.7847222222222222,-2.451388888888889,0.03584777777777778,-0.012390555555555556,-0.03162333333333333,0.09953111111111111
Julia,-0.002585294117647059,-0.03311705882352941,0.047449411764705886,-0.11764705882352941,-0.058823529411764705,-0.17647058823529413,-0.11764705882352941,0.0,0.11764705882352941,0.058823529411764705,-0.35294117647058826,-0.007352941176470588,0.08088235294117647,-0.011029411764705883,0.05487411764705882,-0.01668411764705882,0.005328235294117647,-0.011927058823529412,-0.005170588235294118,-0.06721058823529412,0.09443941176470588,0.058823529411764705,-0.11764705882352941,-0.11764705882352941,-0.11764705882352941,-0.47058823529411764,-0.11764705882352941,0.29411764705882354,-0.35294117647058826,-0.21323529411764705,-0.04411764705882353,-0.23529411764705882,0.10931764705882353,-0.034114705882352936,0.010745882352941176,-0.02471235294117647,-0.002556470588235294,-0.03346176470588235,0.047391764705882355,-0.058823529411764705,0.058823529411764705,-0.058823529411764705,-0.23529411764705882,0.11764705882352941,0.4117647058823529,0.5294117647058824,-0.23529411764705882,0.04779411764705882,0.05514705882352941,-0.3125,0.054572352941176475,-0.016982352941176473,0.005295882352941176,-0.012871176470588235,-0.0014935294117647058,-0.03415117647058824,0.047075882352941176,0.17647058823529413,-0.17647058823529413,-0.058823529411764705,-0.23529411764705882,-0.8235294117647058,-0.47058823529411764,-0.35294117647058826,2.235294117647059,-0.05514705882352941,0.025735294117647058,-0.18382352941176472,0.05432823529411764,-0.017244117647058826,0.005072941176470588,-0.013610588235294117
Julia,-0.0029992857142857143,-0.025739285714285715,0.06689428571428571,0.0,0.42857142857142855,0.6428571428571429,-0.21428571428571427,0.21428571428571427,1.0714285714285714,1.3571428571428572,0.42857142857142855,0.008928571428571428,-0.08928571428571429,0.044642857142857144,0.045929285714285714,-0.009822142857142857,-0.008767142857142857,0.05309214285714286,-0.005127142857142857,-0.05018857142857143,0.13131285714285715,0.0,-0.21428571428571427,-0.35714285714285715,0.14285714285714285,-0.07142857142857142,-0.42857142857142855,-0.6428571428571429,-0.7857142857142857,-0.23214285714285715,-0.3080357142857143,-0.044642857142857144,0.09165714285714285,-0.019444285714285716,-0.017652857142857144,0.10637571428571427,-0.006766428571428571,-0.07017357142857143,0.12482499999999999,-0.07142857142857142,0.21428571428571427,0.35714285714285715,-0.35714285714285715,-0.35714285714285715,0.0,0.14285714285714285,1.4285714285714286,-4.486607142857143,0.5580357142857143,0.12053571428571429,0.08891071428571429,-0.025891428571428572,-0.02637642857142857,0.105525,-0.0024757142857142855,-0.07847357142857143,0.11962857142857143,0.07142857142857142,0.07142857142857142,-0.6428571428571429,-0.5,-0.21428571428571427,-0.07142857142857142,-0.14285714285714285,0.07142857142857142,0.10714285714285714,0.3169642857142857,-0.4732142857142857,0.09089928571428572,-0.02841142857142857,-0.029436428571428568,0.10233
Julia,-0.0030924999999999998,0.046509166666666664,0.069295,0.0,0.0,0.0,0.0,0.0,0.0,0.0,0.0,0.036458333333333336,-0.010416666666666666,-0.08333333333333333,-0.07897916666666667,-0.02392583333333333,-0.004760833333333333,-0.01059,-0.053059166666666664,0.12630166666666667,0.13749166666666665,-2.1666666666666665,0.4166666666666667,1.8333333333333333,2.0,4.75,2.5833333333333335,0.0,-7.25,8.90625,13.630208333333334,-13.598958333333334,-0.15498416666666667,-0.05461666666666667,-0.02423583333333333,-0.013635833333333333,-0.2104891666666667,0.1610925,0.10396333333333334,-1.9166666666666667,-4.583333333333333,-2.3333333333333335,-2.0,-0.4166666666666667,0.5833333333333334,0.25,0.0,16.984375,32.572916666666664,-31.25,-0.19726,-0.09759083333333333,-0.1168925,0.0189725,-0.22794583333333338,0.11218333333333332,-0.0455325,4.083333333333333,4.166666666666667,1.8333333333333333,2.3333333333333335,4.333333333333333,0.9166666666666666,2.6666666666666665,11.166666666666666,1.8385416666666667,23.760416666666668,-6.145833333333333,-0.202265,-0.129715,-0.22748833333333338,0.040140833333333334
Julia,-0.003815,0.03949,0.04943875,0.0,-0.125,-0.1875,-0.0625,0.125,0.0625,0.0625,0.25,0.0859375,-0.0078125,-0.05859375,-0.017791875,-0.004230625,-0.020366875,-0.056190625,-0.0098575,0.08026125,0.0977175,0.125,-0.5,0.1875,-0.0625,0.1875,0.0625,-0.0625,0.0,0.421875,0.234375,-0.64453125,-0.036620625000000004,-0.008186249999999999,-0.041465625,-0.1117975,-0.09939562499999999,0.137786875,0.13766499999999998,-3.125,-0.4375,-0.6875,-0.4375,-1.5,-1.25,-1.875,-1.5,10.62109375,24.328125,-20.67578125,-0.06982437500000001,0.013980625,-0.0807,-0.153465,-0.17257625,0.099975625,-0.00766,4.125,1.375,0.875,0.375,2.6875,2.625,3.4375,6.3125,4.44140625,23.7109375,-7.0625,-0.08620499999999999,0.10390125,-0.154400625,-0.142894375
Julia,-0.004464285714285714,0.039550714285714286,0.058454285714285716,1.5,0.42857142857142855,-1.0714285714285714,-0.2857142857142857,-0.7142857142857143,-0.21428571428571427,-0.14285714285714285,0.14285714285714285,0.2767857142857143,0.38392857142857145,-0.05357142857142857,-0.06820214285714285,-0.020490714285714286,-0.003727857142857143,-0.004155,-0.09078571428571428,0.09797,0.090715,-4.714285714285714,-2.142857142857143,1.2857142857142858,0.7142857142857143,0.9285714285714286,1.2857142857142858,-0.6428571428571429,-3.4285714285714284,9.888392857142858,18.941964285714285,-15.209821428571429,-0.12670857142857142,-0.05304428571428572,-0.03835142857142858,0.008057142857142856,-0.11875714285714285,0.056850000000000005,0.002197857142857143,-0.21428571428571427,-0.7142857142857143,-1.1428571428571428,-0.7142857142857143,-1.8571428571428572,-2.0714285714285716,0.6428571428571429,2.7142857142857144,3.9017857142857144,16.017857142857142,-7.625,-0.09619571428571429,-0.05824071428571428,-0.08514,0.02264357142857143,-0.19213857142857144,0.06801071428571429,-0.05339714285714286,5.785714285714286,3.0,-0.2857142857142857,-1.0,-0.35714285714285715,1.2857142857142858,-0.7142857142857143,4.214285714285714,0.3080357142857143,2.1294642857142856,-0.9375,-0.12597642857142857,-0.09192285714285713,-0.14379428571428574,0.030439285714285717
Julia,-0.004544615384615385,0.04180461538461539,0.06512923076923077,-0.6153846153846154,-0.46153846153846156,0.38461538461538464,0.6153846153846154,0.3076923076923077,0.0,-0.46153846153846156,-0.23076923076923078,0.009615384615384616,0.02403846153846154,-0.14423076923076922,-0.07258,-0.020822307692307692,-0.006093846153846154,-0.013399230769230771,-0.010666923076923076,0.05311,0.06881000000000001,0.07692307692307693,0.5384615384615384,1.2307692307692308,-0.46153846153846156,-1.3846153846153846,-1.2307692307692308,-0.38461538461538464,0.23076923076923078,2.514423076923077,0.7980769230769231,-2.889423076923077,-0.07216692307692307,-0.022822307692307694,-0.007126923076923077,-0.011742307692307693,-0.15970615384615383,0.15963076923076924,0.12875615384615385,-0.07692307692307693,-0.9230769230769231,1.4615384615384615,1.0769230769230769,1.0769230769230769,3.6923076923076925,1.8461538461538463,5.384615384615385,15.211538461538462,37.5,-25.004807692307693,-0.19705461538461536,-0.08160461538461537,-0.08785307692307692,-0.0022815384615384616,-0.22889153846153842,0.11309307692307692,-0.0036061538461538466,-7.076923076923077,-8.461538461538462,-4.153846153846154,-2.6153846153846154,-4.3076923076923075,-6.0,-3.076923076923077,-9.461538461538462,9.591346153846153,27.028846153846153,-14.322115384615385,-0.2003323076923077,-0.11026230769230769,-0.20397076923076923,0.02758769230769231
Julia,-0.004654666666666666,-0.042382666666666666,0.05068333333333333,-0.4666666666666667,-0.4,-0.2,0.0,-0.3333333333333333,-0.6,-0.5333333333333333,0.3333333333333333,0.07916666666666666,-0.1125,-0.025,0.060449333333333334,-0.021069333333333332,0.008708,-0.01644666666666667,-0.006640666666666667,-0.041146,0.051172,-0.26666666666666666,0.13333333333333333,0.4666666666666667,1.1333333333333333,1.0,-0.26666666666666666,-1.1333333333333333,0.06666666666666667,0.008333333333333333,-0.04583333333333333,0.004166666666666667,0.06052266666666666,-0.020996,0.008532666666666666,-0.016369333333333333,-0.009505333333333333,-0.08450533333333335,0.102604,-0.2,0.13333333333333333,0.9333333333333333,1.6,1.0666666666666667,-0.2,-0.7333333333333333,0.0,0.175,-0.17916666666666667,-0.12916666666666668,0.12104933333333333,-0.04142266666666667,0.01702066666666667,-0.03345533333333333,-0.009212,-0.08284466666666666,0.102376,-0.5333333333333333,-0.26666666666666666,-0.6,-0.6,-0.26666666666666666,-0.3333333333333333,-1.0666666666666667,-1.2,-0.14583333333333334,-0.20416666666666666,0.041666666666666664,0.12116266666666667,-0.041536000000000003,0.016601333333333336,-0.03310133333333333
Julia,-0.004807692307692308,-0.043344615384615384,0.06261230769230769,-0.15384615384615385,-0.23076923076923078,-0.38461538461538464,-0.15384615384615385,-0.38461538461538464,-0.5384615384615384,-0.38461538461538464,0.38461538461538464,-0.052884615384615384,0.07211538461538461,-0.019230769230769232,0.06138230769230769,-0.017845384615384617,0.014427692307692308,-0.04028307692307693,-0.004582307692307692,-0.043344615384615384,0.06253769230769231,-0.15384615384615385,-0.23076923076923078,0.15384615384615385,0.46153846153846156,0.6153846153846154,0.23076923076923078,0.38461538461538464,-1.3076923076923077,-0.03365384615384615,0.36538461538461536,-0.1201923076923077,0.06123230769230769,-0.017770769230769232,0.014733076923076923,-0.040438461538461534,-0.014836153846153844,-0.1302953846153846,0.18678692307692307,-0.07692307692307693,-0.15384615384615385,0.3076923076923077,0.3076923076923077,0.15384615384615385,0.0,0.0,-0.07692307692307693,0.8894230769230769,0.2692307692307692,-1.1057692307692308,0.1818846153846154,-0.05188461538461538,0.04526461538461538,-0.12422076923076923,-0.017052307692307693,-0.1708976923076923,0.24902307692307696,0.15384615384615385,0.07692307692307693,0.5384615384615384,0.7692307692307693,0.5384615384615384,0.15384615384615385,0.0,1.3846153846153846,0.6105769230769231,0.5817307692307693,0.15384615384615385,0.2410569230769231,-0.0688476923076923,0.05989846153846153,-0.1680430769230769
Julia,-0.004947999999999999,0.050423333333333334,0.04319666666666667,0.0,0.2,0.8,0.2,0.2,0.2,0.06666666666666667,0.26666666666666666,-0.020833333333333332,-0.07083333333333333,0.14166666666666666,-0.05784933333333333,-0.025606,-0.010774666666666667,-0.01807466666666667,-0.045378,0.110872,0.08626333333333334,-1.3333333333333333,-0.9333333333333333,-0.4,-0.06666666666666667,-0.7333333333333333,0.4666666666666667,-0.8666666666666667,-1.6666666666666667,3.0791666666666666,9.304166666666667,-9.945833333333333,-0.11496599999999998,-0.050468,-0.031795333333333335,-0.03166466666666667,-0.16022133333333333,0.13346333333333332,0.048796,-0.06666666666666667,-0.4666666666666667,-1.2666666666666666,-1.1333333333333333,-0.6666666666666666,-1.6666666666666667,-0.4,1.9333333333333333,14.629166666666666,18.558333333333334,-16.7375,-0.14854333333333336,-0.06795266666666668,-0.11499066666666667,-0.009248666666666667,-0.22988266666666668,0.08955066666666668,-0.06578733333333334,-2.2666666666666666,-2.2,-2.066666666666667,-0.6,1.4666666666666666,-2.466666666666667,-1.4666666666666666,-2.3333333333333335,0.008333333333333333,7.170833333333333,-5.879166666666666,-0.16311466666666666,-0.083862,-0.19343266666666667,0.007739999999999999
Julia,-0.005112352941176471,-0.024730000000000002,0.05009176470588235,0.0,0.0,0.0,0.0,0.0,0.0,0.0,0.0,-0.4007352941176471,-0.39705882352941174,-0.01838235294117647,0.006135882352941177,0.0016552941176470586,0.013901764705882353,-0.05680235294117647,-0.00494,-0.03604647058823529,0.046415294117647055,-0.29411764705882354,-0.29411764705882354,-0.23529411764705882,0.0,-0.11764705882352941,-0.35294117647058826,-0.11764705882352941,-0.29411764705882354,-1.1764705882352942,-0.06985294117647059,-0.21323529411764705,0.00924529411764706,-9.229411764705882E-4,0.019269411764705882,-0.05479529411764706,-0.006548823529411765,-0.07525235294117648,0.0887235294117647,-0.23529411764705882,-0.11764705882352941,0.058823529411764705,-0.11764705882352941,-0.23529411764705882,-0.47058823529411764,-0.4117647058823529,-0.058823529411764705,0.4411764705882353,0.07352941176470588,-1.2794117647058822,0.012192352941176472,-0.0010911764705882354,0.03934294117647059,-0.1101970588235294,-0.0064052941176470585,-0.07134647058823529,0.08984411764705882,-0.17647058823529413,-0.17647058823529413,-0.35294117647058826,-0.29411764705882354,-0.5882352941176471,-0.29411764705882354,-0.29411764705882354,0.17647058823529413,-0.11397058823529412,-0.17647058823529413,-0.3235294117647059,0.01285705882352941,-0.0013929411764705881,0.03913058823529411,-0.11019411764705882
Julia,-0.005338666666666667,0.03658866666666667,0.056315333333333335,0.5333333333333333,0.0,0.13333333333333333,0.06666666666666667,-0.06666666666666667,-0.26666666666666666,0.0,0.06666666666666667,-0.029166666666666667,0.020833333333333332,0.041666666666666664,-0.06350533333333333,-0.018367333333333333,-0.004736000000000001,-0.007206000000000001,-0.019304,0.08756533333333333,0.12262400000000001,-1.3333333333333333,-0.6666666666666666,0.6666666666666666,1.2666666666666666,6.533333333333333,2.4,-0.6666666666666666,-1.5333333333333334,3.779166666666667,1.3166666666666667,-5.4,-0.12679066666666666,-0.03788266666666667,-0.011099999999999999,-0.012032,-0.159408,0.11442066666666667,0.07646466666666667,4.733333333333333,-0.5333333333333333,-1.9333333333333333,-0.4666666666666667,1.2,1.0666666666666667,1.8666666666666667,1.0,11.4375,28.604166666666668,-17.691666666666666,-0.159806,-0.07897533333333334,-0.088708,0.018344000000000003,-0.20859333333333333,0.093424,-0.04052733333333334,5.066666666666666,2.6666666666666665,1.4,1.1333333333333333,1.0666666666666667,-1.2,2.4,-2.6666666666666665,-0.2708333333333333,14.5875,-4.316666666666666,-0.16546199999999997,-0.10986333333333334,-0.17532533333333333,0.030387333333333336
Julia,-0.0057092307692307685,-0.028846153846153848,0.07065076923076924,0.0,0.15384615384615385,0.07692307692307693,-0.07692307692307693,0.15384615384615385,0.15384615384615385,-0.3076923076923077,-0.3076923076923077,0.019230769230769232,-0.08173076923076923,-0.10096153846153846,0.05253692307692308,-0.012493076923076923,-0.008718461538461538,0.05407692307692307,-0.005408461538461538,-0.029033846153846153,0.07080076923076922,-0.3076923076923077,-0.07692307692307693,-0.38461538461538464,0.0,0.0,-0.23076923076923078,-1.1538461538461537,-0.23076923076923078,0.004807692307692308,-0.04807692307692308,0.038461538461538464,0.05250461538461538,-0.01247,-0.008746923076923077,0.05411,-0.011155384615384616,-0.09224769230769231,0.20928538461538462,-0.8461538461538461,-6.230769230769231,-3.3076923076923075,0.15384615384615385,-0.5384615384615384,-1.0,-0.5384615384615384,-1.1538461538461537,-9.596153846153847,-3.6634615384615383,3.418269230769231,0.15531076923076922,-0.03838615384615385,-0.03158769230769231,0.1632646153846154,-0.017277692307692306,-0.13660615384615385,0.18798769230769233,-0.07692307692307693,0.0,-0.07692307692307693,-0.15384615384615385,-0.5384615384615384,-0.23076923076923078,-0.15384615384615385,-1.6153846153846154,-4.038461538461538,2.3173076923076925,-6.552884615384615,0.15196846153846155,-0.05395076923076923,-0.04498769230769231,0.15880923076923076
Julia,-0.006557142857142858,0.04255,0.05737285714285715,-0.07142857142857142,-0.07142857142857142,-0.35714285714285715,-0.07142857142857142,-0.21428571428571427,-1.0,-0.14285714285714285,-0.2857142857142857,0.049107142857142856,-0.06696428571428571,0.04017857142857143,-0.023734285714285715,-0.004642857142857143,-0.02187642857142857,-0.063555,-0.009904999999999999,0.047677142857142855,0.06455785714285714,-0.35714285714285715,-2.5714285714285716,-0.6428571428571429,-0.07142857142857142,0.9285714285714286,1.4285714285714286,0.7142857142857143,1.3571428571428572,1.3973214285714286,0.8660714285714286,-1.1383928571428572,-0.024,-0.004420714285714286,-0.022552142857142857,-0.06323214285714286,-0.16113285714285716,0.14121785714285712,0.10396857142857144,-4.428571428571429,-4.785714285714286,-0.35714285714285715,-0.5714285714285714,-0.35714285714285715,-1.4285714285714286,-1.3571428571428572,-7.714285714285714,12.540178571428571,35.870535714285715,-22.977678571428573,-0.08425071428571429,0.050079285714285715,-0.11361642857142858,-0.15286714285714284,-0.11966357142857142,0.05332714285714286,-0.023960714285714287,-1.8571428571428572,1.7857142857142858,2.642857142857143,0.6428571428571429,0.7142857142857143,-1.2142857142857142,0.42857142857142855,-2.7857142857142856,1.5714285714285714,3.107142857142857,0.6964285714285714,-0.04716714285714285,0.06214642857142857,-0.09092928571428571,-0.07780714285714287
Julia,-0.006673333333333333,-0.047363333333333334,0.06713833333333334,0.0,-0.16666666666666666,-0.16666666666666666,-0.16666666666666666,-0.25,-0.16666666666666666,-0.08333333333333333,-0.08333333333333333,-0.23958333333333334,0.08333333333333333,-0.46875,0.048024166666666666,-0.012481666666666667,0.022593333333333337,-0.06302416666666667,-0.014566666666666667,-0.09493,0.13411416666666667,-0.3333333333333333,-0.5,-0.8333333333333334,-1.5833333333333333,-1.5833333333333333,-1.5833333333333333,-0.4166666666666667,-0.5833333333333334,-0.7864583333333334,0.041666666666666664,-1.3072916666666667,0.0941975,-0.025624166666666667,0.04592916666666667,-0.12703416666666667,-0.016885833333333333,-0.1445316666666667,0.19755083333333334,0.08333333333333333,0.0,0.0,0.5,0.5,0.4166666666666667,0.25,0.16666666666666666,0.171875,-0.6458333333333334,-1.1927083333333333,0.13811833333333334,-0.03927166666666667,0.06808,-0.19299333333333332,-0.018962499999999997,-0.19226083333333333,0.26469000000000004,0.0,0.0,0.16666666666666666,0.75,1.3333333333333333,0.08333333333333333,-0.3333333333333333,-0.4166666666666667,-1.0989583333333333,-0.7916666666666666,-0.8125,0.18517583333333332,-0.053405833333333326,0.08907583333333334,-0.25696833333333335
Julia,-0.006800714285714286,-0.04052714285714286,0.057128571428571424,-0.07142857142857142,-0.14285714285714285,0.21428571428571427,0.5,0.42857142857142855,0.07142857142857142,-0.5,-0.6428571428571429,-0.08035714285714286,0.125,-0.09375,0.06382071428571429,-0.019042857142857143,0.010450000000000001,-0.023602857142857144,-0.011614285714285716,-0.08081071428571428,0.11202571428571428,-0.14285714285714285,0.07142857142857142,-0.21428571428571427,-0.21428571428571427,-0.35714285714285715,-0.14285714285714285,-0.42857142857142855,-1.0,-0.19196428571428573,0.08928571428571429,-0.7008928571428571,0.126975,-0.03856571428571428,0.021070000000000002,-0.04851357142857143,-0.009172857142857144,-0.12280285714285713,0.16978214285714285,0.07142857142857142,-0.21428571428571427,-0.7142857142857143,-1.2857142857142858,-0.8571428571428571,-0.35714285714285715,0.07142857142857142,1.2857142857142858,0.8660714285714286,0.8035714285714286,-1.3616071428571428,0.18895642857142855,-0.057643571428571426,0.031075714285714286,-0.07696928571428573,-0.009137857142857142,-0.0811592857142857,0.11457142857142857,-0.14285714285714285,0.14285714285714285,0.0,-0.21428571428571427,0.0,0.0,-0.35714285714285715,-0.7857142857142857,0.19642857142857142,-0.3392857142857143,-0.48660714285714285,0.12538357142857143,-0.03823,0.020620714285714287,-0.05290857142857143
Julia,-0.007115000000000001,0.05269928571428571,0.048932857142857146,-0.8571428571428571,0.42857142857142855,0.7857142857142857,0.35714285714285715,-0.07142857142857142,0.07142857142857142,-0.21428571428571427,0.0,-0.03571428571428571,-0.017857142857142856,0.08482142857142858,-0.05983642857142857,-0.024396428571428572,-0.014757142857142858,-0.02662857142857143,-0.023821428571428573,0.06406928571428572,0.052839285714285714,-3.142857142857143,-7.714285714285714,-3.5714285714285716,-1.2142857142857142,-0.07142857142857142,-0.8571428571428571,0.21428571428571427,1.0,2.107142857142857,4.075892857142857,-5.089285714285714,-0.05980571428571429,-0.023546428571428572,-0.018105714285714284,-0.025364285714285718,-0.11042142857142857,0.08356642857142857,0.03923642857142857,1.7142857142857142,-1.2857142857142858,-1.0,-1.4285714285714286,-1.5,-1.9285714285714286,0.9285714285714286,2.4285714285714284,7.808035714285714,17.276785714285715,-14.959821428571429,-0.10576071428571429,-0.035038571428571426,-0.08643500000000001,-0.022596428571428573,-0.16078428571428574,0.06999857142857142,-0.04520071428571428,3.642857142857143,3.357142857142857,0.14285714285714285,0.21428571428571427,1.3571428571428572,2.642857142857143,4.142857142857143,8.571428571428571,-1.3303571428571428,9.174107142857142,-2.9910714285714284,-0.12858785714285711,-0.038713571428571424,-0.16605928571428571,-0.017595714285714287
Julia,-0.007368181818181818,0.054066363636363635,0.0738190909090909,-0.09090909090909091,-0.09090909090909091,0.0,0.0,0.09090909090909091,0.18181818181818182,0.0,0.2727272727272727,-0.13068181818181818,0.045454545454545456,-0.09659090909090909,-0.03001818181818182,-0.0063363636363636365,-0.027654545454545456,-0.08098818181818182,-0.019442727272727275,0.10493545454545455,0.15514,-2.3636363636363638,-1.4545454545454546,-1.2727272727272727,-0.7272727272727273,-3.5454545454545454,-2.3636363636363638,0.0,0.9090909090909091,2.6931818181818183,2.6079545454545454,-2.3693181818181817,-0.06067454545454545,-0.010897272727272728,-0.056040909090909086,-0.16161545454545456,-0.08678,0.17462727272727271,0.19957363636363637,-3.909090909090909,-1.3636363636363635,0.09090909090909091,-0.18181818181818182,-3.1818181818181817,-2.272727272727273,-0.36363636363636365,0.9090909090909091,4.9602272727272725,13.198863636363637,-11.869318181818182,-0.10420818181818182,0.0027963636363636363,-0.10195636363636364,-0.23048000000000002,-0.1428,0.22451909090909092,0.2304690909090909,-11.0,-5.636363636363637,3.090909090909091,1.7272727272727273,4.363636363636363,-1.5454545454545454,-1.4545454545454546,0.5454545454545454,-0.9545454545454546,3.852272727272727,-3.3125,-0.14473181818181818,0.027032727272727267,-0.15217727272727274,-0.2956372727272727
Julia,-0.007715,0.058057000000000004,0.082227,-0.1,-0.8,-1.0,-0.6,-0.6,0.3,-0.1,-0.1,0.24375,0.1375,-0.24375,-0.034777999999999996,-0.007495,-0.029492,-0.08869,-0.074707,0.14741300000000002,0.18476499999999998,-0.7,-7.3,-5.7,-3.3,0.8,3.0,0.6,-1.2,10.23125,16.94375,-16.6,-0.074713,-0.005988,-0.069543,-0.17188699999999998,-0.24091800000000002,0.195996,0.12583,-2.0,-5.4,-2.6,-1.4,-4.7,-5.0,0.5,7.1,16.60625,50.175,-31.15625,-0.119861,0.07118,-0.158825,-0.21277999999999997,-0.252588,0.14082,-0.025535999999999996,4.9,1.9,0.0,1.0,0.3,-0.5,3.7,11.1,3.95,32.2625,-10.375,-0.143299,0.16844499999999998,-0.25011700000000003,-0.22025199999999998
Julia,-0.008748333333333334,-0.034505,0.075155,0.4166666666666667,-0.3333333333333333,-0.3333333333333333,-0.16666666666666666,-0.08333333333333333,-1.0,-0.25,0.4166666666666667,-0.10416666666666667,0.07291666666666667,0.06770833333333333,0.06112666666666666,-0.01652,-0.008163333333333333,0.053553333333333335,-0.008138333333333332,-0.03340666666666667,0.07259083333333334,0.0,-0.5833333333333334,-0.5,-0.25,-0.4166666666666667,-0.5,-1.0,-2.3333333333333335,-0.2552083333333333,-0.10416666666666667,-0.28125,0.06114166666666667,-0.016495,-0.00825,0.05353333333333333,-0.019734166666666667,-0.09582500000000001,0.13985166666666668,-0.4166666666666667,0.5833333333333334,0.25,0.08333333333333333,0.4166666666666667,0.5,0.0,0.5,-7.927083333333333,2.421875,-1.1197916666666667,0.11741083333333331,-0.04264833333333334,-0.025934166666666664,0.10722333333333334,-0.022909166666666664,-0.16149916666666667,0.19238333333333335,-0.08333333333333333,-0.08333333333333333,0.08333333333333333,0.3333333333333333,0.8333333333333334,-0.16666666666666666,-0.5,-0.75,0.3489583333333333,1.71875,-3.5416666666666665,0.18351666666666666,-0.0717925,-0.042027499999999995,0.147975
Julia,-0.009016666666666668,-0.028938666666666668,0.05927733333333333,-0.4,0.06666666666666667,-0.13333333333333333,0.0,-0.06666666666666667,0.06666666666666667,-0.13333333333333333,-0.06666666666666667,-0.0625,0.0375,-0.0625,0.045877999999999995,-0.013826666666666666,-0.007364666666666667,0.04576,-0.014029999999999999,-0.05722666666666667,0.11920599999999999,0.13333333333333333,0.7333333333333333,1.0,0.2,0.2,0.2,0.2,-0.13333333333333333,-0.9291666666666667,-1.2583333333333333,0.25833333333333336,0.09158533333333334,-0.027193333333333337,-0.015779333333333333,0.091654,-0.022103333333333332,-0.10602266666666668,0.16588533333333333,0.26666666666666666,-0.4666666666666667,-0.6,-0.06666666666666667,-0.4666666666666667,-0.7333333333333333,-0.8,0.0,-3.6416666666666666,3.4583333333333335,0.4125,0.13403333333333334,-0.050224000000000005,-0.029223999999999997,0.13658866666666664,-0.04352266666666667,-0.157942,0.2088546666666667,-0.06666666666666667,-0.13333333333333333,-0.13333333333333333,-0.13333333333333333,-0.26666666666666666,-0.3333333333333333,-0.2,-0.2,-1.5166666666666666,1.3708333333333333,-7.458333333333333,0.184684,-0.075858,-0.04340733333333333,0.171342
Julia,-0.009144545454545454,0.05353363636363637,0.07355272727272727,-0.18181818181818182,0.36363636363636365,-0.6363636363636364,-0.6363636363636364,-0.36363636363636365,-0.18181818181818182,-0.09090909090909091,-0.09090909090909091,0.0,0.011363636363636364,-0.09659090909090909,-0.026760909090909092,-0.0039390909090909094,-0.028031818181818182,-0.08214181818181819,-0.05584090909090909,0.13960454545454545,0.16730272727272727,2.5454545454545454,2.272727272727273,3.4545454545454546,2.0,3.272727272727273,3.909090909090909,3.4545454545454546,8.909090909090908,7.982954545454546,7.357954545454546,-9.727272727272727,-0.05661818181818182,-0.004233636363636364,-0.062328181818181824,-0.16108818181818182,-0.15034636363636364,0.12939454545454546,0.09237454545454545,5.636363636363637,6.090909090909091,1.0,-0.36363636363636365,-0.9090909090909091,-2.8181818181818183,-3.272727272727273,3.5454545454545454,13.443181818181818,29.698863636363637,-20.147727272727273,-0.06914727272727274,0.041493636363636364,-0.09488727272727272,-0.13245727272727273,-0.18403818181818182,0.10009818181818182,-0.03231545454545454,3.4545454545454546,-1.0909090909090908,-1.2727272727272727,0.2727272727272727,1.5454545454545454,0.0,1.4545454545454546,14.545454545454545,2.8238636363636362,16.460227272727273,-1.6704545454545454,-0.09246272727272728,0.11888090909090909,-0.17211272727272725,-0.1485818181818182
Julia,-0.009338125,0.04541,0.042999375,-0.3125,-0.125,-0.3125,-0.4375,-0.1875,-0.25,-0.25,-0.4375,-0.1015625,-0.29296875,0.296875,-0.03744875,-0.012630625,-0.021125625,-0.0435675,-0.05661,0.107208125,0.078308125,-0.375,1.0,0.0,-0.0625,0.0,-0.4375,-0.5,-0.875,5.47265625,11.62890625,-11.5234375,-0.075985,-0.016590624999999998,-0.05579375,-0.0803875,-0.152160625,0.084045625,0.016693125,2.375,1.0,-0.0625,-0.0625,-0.5625,-0.0625,1.125,2.3125,7.19140625,14.62109375,-12.890625,-0.10982125,0.01461,-0.132,-0.07385625000000001,-0.22161875000000003,0.08581562499999999,-0.0756225,-1.75,0.375,-0.3125,-0.6875,-0.75,-0.75,-1.625,-9.9375,-2.5,6.04296875,1.5703125,-0.127841875,0.04359125,-0.19337125,-0.082878125
Julia,-0.009810000000000001,0.05490909090909091,0.07208818181818182,0.6363636363636364,0.5454545454545454,-0.36363636363636365,-0.5454545454545454,-0.6363636363636364,0.18181818181818182,-0.45454545454545453,-0.7272727272727273,0.375,0.2727272727272727,-0.36363636363636365,-0.026344545454545454,-0.0032236363636363634,-0.02985727272727273,-0.08166545454545454,-0.042524545454545454,0.12553272727272727,0.13804999999999998,0.6363636363636364,-1.4545454545454546,-1.1818181818181819,-0.8181818181818182,-0.09090909090909091,0.5454545454545454,0.0,3.3636363636363638,0.8693181818181818,3.4545454545454546,-5.1875,-0.055559090909090905,-5.6E-4,-0.06383636363636364,-0.16092727272727272,-0.07546181818181817,0.10609090909090907,0.1313918181818182,3.8181818181818183,5.636363636363637,-0.09090909090909091,-0.9090909090909091,-1.8181818181818181,-0.36363636363636365,0.8181818181818182,3.5454545454545454,-0.20454545454545456,7.142045454545454,-5.238636363636363,-0.06367636363636363,0.01459909090909091,-0.06925818181818183,-0.15490727272727273,-0.16548363636363636,0.22603,0.2468490909090909,-3.6363636363636362,-3.5454545454545454,0.18181818181818182,-0.2727272727272727,-1.5454545454545454,-1.0,1.6363636363636365,0.36363636363636365,5.198863636363637,0.6590909090909091,-3.4318181818181817,-0.13269636363636364,0.039689999999999996,-0.14442545454545455,-0.30364454545454544
Julia,-0.01119,-0.04931666666666667,0.06693500000000001,-0.16666666666666666,0.0,-0.25,0.0,-0.08333333333333333,0.0,-0.4166666666666667,-1.4166666666666667,-0.020833333333333332,-0.015625,-0.08854166666666667,-0.0015258333333333333,0.006830833333333334,0.02572083333333333,-0.07895916666666666,-0.024169999999999997,-0.09818500000000001,0.13293416666666666,0.16666666666666666,-0.08333333333333333,-0.16666666666666666,0.0,0.25,0.5833333333333334,-0.3333333333333333,-0.4166666666666667,-0.4791666666666667,-0.046875,-0.875,-0.0038508333333333333,0.013101666666666666,0.052180000000000004,-0.15770499999999998,-0.02970333333333333,-0.1542975,0.19722499999999998,-0.3333333333333333,-0.4166666666666667,-0.25,-0.9166666666666666,-1.0833333333333333,-1.3333333333333333,-1.25,-1.0,-0.09895833333333333,0.057291666666666664,-1.9114583333333333,-0.009664166666666668,0.019673333333333334,0.07889833333333333,-0.23621083333333334,-0.028971666666666663,-0.15425583333333334,0.19791666666666666,-0.5,-0.5833333333333334,-0.8333333333333334,-0.08333333333333333,-0.25,-2.0833333333333335,-1.0,-0.16666666666666666,-0.046875,-0.5885416666666666,-0.2760416666666667,-0.010513333333333333,0.018193333333333336,0.07867916666666668,-0.23636916666666666
Julia,-0.011319090909090909,0.051225454545454546,0.07457363636363636,-0.5454545454545454,-0.18181818181818182,0.09090909090909091,0.09090909090909091,0.36363636363636365,0.45454545454545453,0.09090909090909091,-0.6363636363636364,0.25,-0.1534090909090909,-0.14204545454545456,-0.08639818181818182,-0.027177272727272727,-0.0037118181818181816,0.006919090909090909,-0.022328181818181816,0.0523790909090909,0.07390818181818182,-3.909090909090909,-8.0,-2.5454545454545454,0.18181818181818182,4.090909090909091,5.2727272727272725,0.18181818181818182,-1.9090909090909092,3.164772727272727,1.3068181818181819,-4.2102272727272725,-0.08569363636363636,-0.028214545454545457,-0.005887272727272727,0.009516363636363635,-0.07901363636363636,0.10604636363636365,0.12588727272727274,-1.0909090909090908,-3.272727272727273,0.9090909090909091,0.6363636363636364,-0.2727272727272727,-1.0909090909090908,-1.0909090909090908,-0.5454545454545454,2.0625,9.755681818181818,-9.511363636363637,-0.16320272727272728,-0.06488,-0.03204909090909091,0.034457272727272725,-0.10609000000000002,0.0973009090909091,0.11683272727272725,-2.909090909090909,-4.909090909090909,-5.909090909090909,-1.6363636363636365,-0.2727272727272727,-0.5454545454545454,-2.6363636363636362,-5.2727272727272725,-1.6647727272727273,0.9829545454545454,-0.11363636363636363,-0.15938454545454545,-0.06616272727272726,-0.04558181818181819,0.034646363636363635
Julia,-0.012174666666666667,0.05462266666666667,0.040788000000000005,-0.13333333333333333,-0.5333333333333333,0.3333333333333333,0.0,-0.06666666666666667,-0.06666666666666667,-0.3333333333333333,-0.13333333333333333,0.08333333333333333,-0.32916666666666666,-0.20416666666666666,-0.03756533333333333,-0.022814666666666667,0.019201333333333334,0.04630533333333333,-0.029654666666666666,0.04827466666666667,0.038574,-3.1333333333333333,-3.533333333333333,0.4,0.6666666666666666,0.26666666666666666,-0.06666666666666667,0.0,-4.133333333333334,0.5708333333333333,5.020833333333333,-4.808333333333334,-0.033252,-0.029085333333333335,0.013069333333333332,0.04818533333333333,-0.11132800000000001,0.069076,0.03040333333333333,2.466666666666667,1.4666666666666666,2.6,1.2,0.8666666666666667,-0.4,0.4,2.8666666666666667,1.1083333333333334,10.570833333333333,-6.804166666666666,-0.05001266666666667,-0.08391933333333332,0.002087333333333334,0.090714,-0.2208986666666667,0.10507866666666667,-0.03492866666666667,2.1333333333333333,1.2,1.3333333333333333,-0.26666666666666666,-0.7333333333333333,-0.6,0.06666666666666667,-3.4,2.725,13.691666666666666,-4.4125,-0.08175066666666667,-0.20013466666666666,-0.020992666666666666,0.15468800000000002
Julia,-0.012660714285714286,-0.03892285714285714,0.056850000000000005,-0.07142857142857142,0.07142857142857142,0.07142857142857142,0.2857142857142857,0.35714285714285715,-0.14285714285714285,-0.07142857142857142,-0.07142857142857142,-0.07589285714285714,0.14285714285714285,0.017857142857142856,0.06792357142857143,-0.021100714285714285,0.006256428571428572,0.0019835714285714287,-0.013497142857142857,-0.038783571428571424,0.05629214285714285,-0.21428571428571427,-0.2857142857142857,-0.35714285714285715,-0.5714285714285714,-0.8571428571428571,-0.07142857142857142,-0.14285714285714285,0.07142857142857142,-0.12053571428571429,0.11160714285714286,-0.39285714285714285,0.06789714285714285,-0.02126642857142857,0.006103571428571429,0.0015607142857142857,-0.02364714285714286,-0.07934571428571428,0.11551357142857142,-0.35714285714285715,-0.2857142857142857,-0.5714285714285714,0.07142857142857142,0.07142857142857142,-0.5714285714285714,-0.2857142857142857,-0.5,0.6160714285714286,-0.7544642857142857,-0.6160714285714286,0.13608214285714285,-0.04165642857142857,0.012268571428571429,0.0016392857142857142,-0.010847142857142857,-0.03927142857142857,0.058907857142857144,-0.5,-0.21428571428571427,0.07142857142857142,0.07142857142857142,0.07142857142857142,-0.42857142857142855,-0.35714285714285715,-0.07142857142857142,0.022321428571428572,0.17857142857142858,-0.28125,0.06815428571428571,-0.020542857142857144,0.005881428571428571,4.835714285714286E-4
Julia,-0.013409230769230769,0.06144846153846154,0.04544769230769231,-1.3846153846153846,-0.3076923076923077,-0.23076923076923078,-0.46153846153846156,-0.3076923076923077,-0.3076923076923077,-0.6153846153846154,-3.5384615384615383,-0.1971153846153846,-0.0673076923076923,0.08173076923076923,-0.04299230769230769,-0.027207692307692308,0.02225,0.05323230769230769,-0.0015023076923076921,0.06186153846153846,0.05667846153846154,0.8461538461538461,3.0,1.0,-0.6153846153846154,-3.3076923076923075,-4.0,-0.9230769230769231,0.23076923076923078,-1.5096153846153846,-1.9471153846153846,0.47115384615384615,-0.04400615384615385,-0.023911538461538463,0.022973076923076926,0.05367307692307692,-0.1701476923076923,0.15054076923076923,0.1094123076923077,0.46153846153846156,-1.0769230769230769,-1.0769230769230769,-0.7692307692307693,0.8461538461538461,1.5384615384615385,-0.23076923076923078,-4.384615384615385,12.548076923076923,39.47596153846154,-33.14423076923077,-0.0848346153846154,-0.13426384615384615,0.022672307692307693,0.1657246153846154,-0.24015999999999998,0.09600384615384616,-0.054913076923076926,1.2307692307692308,3.769230769230769,-1.1538461538461537,-1.6923076923076923,-0.3076923076923077,-1.4615384615384615,0.15384615384615385,3.1538461538461537,0.1346153846153846,15.20673076923077,0.28846153846153844,-0.07585307692307691,-0.2412023076923077,-0.009075384615384615,0.17509153846153847
Julia,-0.013671764705882352,0.046875294117647064,0.03894764705882353,-0.17647058823529413,0.5882352941176471,1.0588235294117647,0.5882352941176471,0.35294117647058826,0.11764705882352941,-0.29411764705882354,-0.7647058823529411,-0.15441176470588236,-0.1801470588235294,0.19852941176470587,0.010954117647058823,0.010749411764705882,-0.02205529411764706,-0.05232882352941176,-0.07683235294117646,0.08677,0.05681294117647059,-1.411764705882353,-1.6470588235294117,-0.23529411764705882,-0.35294117647058826,-1.1764705882352942,0.6470588235294118,-0.7647058823529411,-2.5294117647058822,6.8786764705882355,13.908088235294118,-12.3125,0.009065882352941177,0.050576470588235285,-0.04447294117647059,-0.0960264705882353,-0.08912588235294117,0.04302588235294118,-0.013988235294117649,0.058823529411764705,-3.5294117647058822,-1.7647058823529411,-1.0588235294117647,-2.3529411764705883,-1.4705882352941178,-0.058823529411764705,4.294117647058823,1.0808823529411764,5.970588235294118,-5.466911764705882,-0.003450588235294118,0.08166882352941177,-0.03787764705882353,-0.07565823529411764,-0.16420588235294117,0.06287352941176472,-0.05557764705882353,-0.11764705882352941,1.1176470588235294,0.17647058823529413,0.4117647058823529,-0.35294117647058826,-1.0,-1.9411764705882353,-0.5294117647058824,0.4338235294117647,0.5147058823529411,0.7169117647058824,-0.0027141176470588235,0.12999411764705882,-0.05475176470588235,-0.10601411764705883
Julia,-0.014159999999999999,0.06656916666666667,0.051473333333333336,-1.5833333333333333,-0.9166666666666666,0.25,-0.08333333333333333,0.08333333333333333,0.5833333333333334,0.08333333333333333,-2.3333333333333335,-0.3958333333333333,-0.4322916666666667,0.3802083333333333,-0.042556666666666666,-0.026367500000000002,0.0254825,0.06155416666666667,-0.10453333333333333,0.14819333333333332,0.09960916666666668,-5.0,0.4166666666666667,-0.16666666666666666,-0.5833333333333334,-0.9166666666666666,-1.4166666666666667,-2.3333333333333335,-3.1666666666666665,5.395833333333333,28.119791666666668,-22.536458333333332,-0.07933,-0.07467166666666668,0.027786666666666668,0.12298583333333335,-0.16329000000000002,0.08337416666666668,0.0183925,-2.0833333333333335,-1.5833333333333333,-1.0833333333333333,-0.4166666666666667,-1.0833333333333333,0.75,0.8333333333333334,-5.25,6.942708333333333,25.328125,-15.026041666666666,-0.06137666666666667,-0.18386833333333333,-0.0031275,0.15780666666666668,-0.3261308333333333,0.11678,-0.08850000000000001,1.6666666666666667,-2.75,-1.1666666666666667,-0.6666666666666666,-1.4166666666666667,-1.3333333333333333,-0.9166666666666666,-4.5,0.6875,5.140625,3.1145833333333335,-0.07796666666666667,-0.2607225,-0.019230833333333332,0.19154333333333337
Julia,-0.016438666666666667,0.048698,0.04362,-0.4,-0.4,-0.26666666666666666,0.13333333333333333,-0.06666666666666667,-0.13333333333333333,-0.2,-0.8,0.04583333333333333,0.004166666666666667,0.15,-0.034956666666666664,-0.022550666666666667,0.016524,0.049401999999999995,-0.016536666666666665,0.04768866666666667,0.041829333333333336,-1.8,-1.7333333333333334,-0.7333333333333333,-0.3333333333333333,0.0,-0.4666666666666667,-0.13333333333333333,-0.8,-0.05,0.3416666666666667,0.1375,-0.034956666666666664,-0.023278666666666666,0.016544666666666666,0.049056,-0.13124933333333333,0.18730533333333332,0.13639266666666666,-1.8666666666666667,-4.533333333333333,-0.3333333333333333,0.4666666666666667,2.933333333333333,3.8666666666666667,1.8,2.0,6.291666666666667,26.7125,-24.579166666666666,-0.10283599999999998,-0.08275133333333334,0.034322,0.14617533333333332,-0.16686199999999998,0.085156,-0.005957333333333333,1.2666666666666666,2.066666666666667,-0.4666666666666667,0.3333333333333333,0.8666666666666667,0.5333333333333333,0.5333333333333333,2.1333333333333333,4.379166666666666,23.908333333333335,-6.9125,-0.072334,-0.201542,-0.011788666666666666,0.15844333333333335
Julia,-0.01748909090909091,0.07355272727272727,0.05633,2.727272727272727,3.727272727272727,0.8181818181818182,0.2727272727272727,0.7272727272727273,1.0,0.2727272727272727,1.6363636363636365,-0.3522727272727273,-0.1590909090909091,-0.8920454545454546,-0.04834545454545455,-0.03036181818181818,0.02668909090909091,0.06551818181818182,-0.05517545454545454,0.08664818181818182,0.06014727272727272,-4.636363636363637,-11.181818181818182,-7.181818181818182,-3.909090909090909,-1.0909090909090908,-0.5454545454545454,-3.6363636363636362,-4.454545454545454,2.9318181818181817,11.892045454545455,-10.965909090909092,-0.04462181818181818,-0.04047727272727272,0.019886363636363636,0.06511363636363637,-0.1218481818181818,0.08291818181818182,0.021306363636363637,10.272727272727273,5.090909090909091,0.7272727272727273,-1.2727272727272727,-1.5454545454545454,-1.9090909090909092,-0.36363636363636365,-0.36363636363636365,4.1875,22.59659090909091,-14.244318181818182,-0.05409363636363636,-0.12977181818181818,5.454545454545548E-6,0.11521181818181817,-0.16033363636363634,0.07657181818181819,-0.03959454545454546,-2.3636363636363638,-1.6363636363636365,-1.6363636363636365,-1.8181818181818181,-2.727272727272727,-6.2727272727272725,-0.8181818181818182,-2.4545454545454546,0.5681818181818182,-0.5738636363636364,-0.7045454545454546,-0.05038181818181819,-0.14003636363636363,-0.009826363636363635,0.10398181818181819
Julia,-0.021795454545454545,0.07808090909090909,0.04421181818181818,0.6363636363636364,0.6363636363636364,0.09090909090909091,-0.09090909090909091,0.8181818181818182,2.1818181818181817,0.36363636363636365,2.4545454545454546,-0.17613636363636365,0.19886363636363635,0.045454545454545456,-0.05420454545454545,-0.03978909090909091,0.02354272727272727,0.05646818181818181,-0.10413727272727273,0.17027727272727275,0.09415,4.363636363636363,11.909090909090908,2.272727272727273,1.0,2.4545454545454546,3.1818181818181817,0.36363636363636365,0.09090909090909091,1.6136363636363635,12.556818181818182,-19.693181818181817,-0.10075818181818183,-0.08792454545454546,0.03454,0.11823,-0.20978363636363637,0.15625,0.04114818181818181,1.3636363636363635,1.3636363636363635,0.2727272727272727,0.36363636363636365,2.909090909090909,2.6363636363636362,1.4545454545454546,-1.9090909090909092,11.857954545454545,35.15909090909091,-20.619318181818183,-0.10636727272727273,-0.1872772727272727,0.0017536363636363637,0.16720272727272728,-0.20982727272727272,0.11155090909090909,-0.06165636363636364,-3.4545454545454546,-6.181818181818182,-3.0,-1.5454545454545454,-2.090909090909091,-2.090909090909091,-5.2727272727272725,-2.0,-1.7727272727272727,10.022727272727273,-0.8977272727272727,-0.08786909090909091,-0.2152318181818182,-0.020835454545454546,0.14107545454545456
Julia,-2.5823529411764706E-4,0.03193941176470588,0.049488823529411766,0.17647058823529413,0.47058823529411764,0.23529411764705882,-0.17647058823529413,0.11764705882352941,0.11764705882352941,-0.058823529411764705,-0.4117647058823529,-0.029411764705882353,-0.014705882352941176,-0.029411764705882353,-0.03174176470588236,-0.009155294117647058,-0.014070588235294118,-0.04659470588235294,-0.019703529411764703,0.04095823529411764,0.047104705882352944,0.17647058823529413,-0.23529411764705882,0.29411764705882354,-0.5882352941176471,-3.235294117647059,-0.7058823529411765,-0.17647058823529413,-0.8235294117647058,3.6948529411764706,5.036764705882353,-5.518382352941177,-0.03580941176470588,-0.006057058823529412,-0.021994117647058824,-0.04071764705882353,-0.09616294117647059,0.05945529411764706,0.013959411764705883,5.470588235294118,4.705882352941177,0.5882352941176471,-0.4117647058823529,0.8823529411764706,1.0588235294117647,0.4117647058823529,4.176470588235294,3.5955882352941178,12.433823529411764,-5.911764705882353,-0.06512117647058824,0.016080588235294117,-0.0793529411764706,-0.05517588235294118,-0.10615823529411764,0.04101588235294118,-0.023293529411764703,7.0,4.294117647058823,0.11764705882352941,-0.058823529411764705,0.5294117647058824,0.0,-1.2352941176470589,3.588235294117647,0.5,0.9080882352941176,-0.6948529411764706,-0.057886470588235296,0.026894705882352942,-0.08814588235294119,-0.044702941176470584
Julia,-7.1E-4,-0.041725454545454545,0.08007818181818181,-0.5454545454545454,-0.36363636363636365,0.09090909090909091,0.0,-0.36363636363636365,-1.3636363636363635,-0.5454545454545454,-0.5454545454545454,0.028409090909090908,-0.07386363636363637,0.0,-0.07752545454545455,0.01906,0.009937272727272727,-0.04233636363636364,-0.010165454545454545,-0.09304,0.15789272727272727,0.45454545454545453,0.5454545454545454,0.2727272727272727,0.2727272727272727,0.18181818181818182,0.0,0.18181818181818182,1.1818181818181819,-7.767045454545454,2.0170454545454546,4.380681818181818,-0.15242181818181819,0.044489090909090916,0.021023636363636362,-0.08605454545454545,-0.014514545454545454,-0.17156454545454544,0.20121636363636364,0.0,0.45454545454545453,0.5454545454545454,0.45454545454545453,0.8181818181818182,0.09090909090909091,-0.2727272727272727,0.2727272727272727,-8.846590909090908,3.6704545454545454,-7.9147727272727275,-0.22565181818181818,0.08891181818181818,0.03568909090909091,-0.11951818181818182,-0.017400909090909092,-0.2601209090909091,0.2619854545454546,-0.2727272727272727,-0.5454545454545454,-0.5454545454545454,0.0,0.5454545454545454,-1.0,-1.0909090909090908,-2.727272727272727,0.19318181818181818,-0.6477272727272727,0.6079545454545454,-0.3023681818181818,0.12270272727272728,0.05387181818181818,-0.15117272727272726
Julia,0.0,0.0,0.0,-0.058823529411764705,-0.058823529411764705,-0.29411764705882354,-0.29411764705882354,-0.29411764705882354,-0.23529411764705882,-0.058823529411764705,0.11764705882352941,0.0,0.0,0.0,0.0,0.0,0.0,0.0,-0.0017517647058823528,-0.06026000000000001,0.10070058823529413,-0.29411764705882354,-0.4117647058823529,-0.7647058823529411,-1.0,-1.0,-0.5882352941176471,-0.23529411764705882,-1.1764705882352942,-3.610294117647059,-0.23897058823529413,0.7830882352941176,0.054177647058823525,-0.013168823529411766,0.028894705882352944,-0.09948411764705882,-1.7235294117647057E-4,-0.09587529411764706,0.14214764705882352,-0.11764705882352941,-0.29411764705882354,-0.4117647058823529,-0.6470588235294118,-0.6470588235294118,0.0,0.058823529411764705,0.29411764705882354,0.27205882352941174,-0.5808823529411765,-2.9558823529411766,0.07648823529411765,-0.023624117647058823,0.044576470588235294,-0.15082176470588238,0.007754705882352941,-0.09455411764705883,0.14570882352941175,-0.17647058823529413,-0.4117647058823529,-0.8235294117647058,-1.8823529411764706,-1.8823529411764706,-1.0588235294117647,0.0,-0.23529411764705882,0.26838235294117646,0.47058823529411764,-0.5551470588235294,0.07259588235294118,-0.025204117647058825,0.043647058823529414,-0.15274588235294118
Julia,0.0,0.0,0.0,-0.1111111111111111,-0.2777777777777778,0.0,-0.16666666666666666,-0.16666666666666666,-0.16666666666666666,0.0,0.16666666666666666,0.0,0.0,0.0,0.0,0.0,0.0,0.0,-0.005967777777777778,0.03423388888888889,0.04391833333333333,-0.8333333333333334,-0.5555555555555556,0.0,-0.2777777777777778,-0.05555555555555555,-0.6666666666666666,-0.05555555555555555,0.0,-0.03819444444444445,0.03819444444444445,-0.06944444444444445,-0.018147777777777777,-0.00315,-0.018022222222222224,-0.04922166666666667,-0.008599444444444444,0.06868500000000001,0.08946388888888888,-1.2222222222222223,-2.9444444444444446,-2.3333333333333335,-1.2222222222222223,-1.1666666666666667,-0.6111111111111112,0.2222222222222222,-1.6666666666666667,1.7152777777777777,0.9965277777777778,-0.8888888888888888,-0.036387222222222224,-0.006195,-0.036664999999999996,-0.09818555555555555,-0.07866722222222222,0.1052522222222222,0.10256611111111111,1.3333333333333333,3.388888888888889,-0.16666666666666666,-0.8888888888888888,3.1666666666666665,1.5555555555555556,-1.4444444444444444,-0.5,1.2569444444444444,9.072916666666666,-6.545138888888889,-0.064965,0.012427222222222221,-0.07306611111111111,-0.13439277777777778
Julia,0.0,0.0,0.0,-0.38461538461538464,0.07692307692307693,0.15384615384615385,-0.07692307692307693,0.0,-0.23076923076923078,-1.7692307692307692,-0.15384615384615385,0.0,0.0,0.0,0.0,0.0,0.0,0.0,-0.004695384615384615,-0.06554230769230769,0.1372069230769231,-0.07692307692307693,-2.1538461538461537,-0.46153846153846156,-0.38461538461538464,-0.6923076923076923,-0.7692307692307693,-0.9230769230769231,-0.46153846153846156,-1.9230769230769231,-0.4375,1.8365384615384615,0.0904123076923077,-0.023277692307692312,-0.024047692307692308,0.1198876923076923,-0.008526153846153846,-0.042443076923076924,0.06223692307692308,-0.6923076923076923,-0.5384615384615384,-0.23076923076923078,0.23076923076923078,0.0,-0.23076923076923078,0.23076923076923078,-0.15384615384615385,-1.8509615384615385,0.8365384615384616,0.057692307692307696,0.04228769230769231,-0.015972307692307692,-0.015619999999999998,0.060246153846153845,-0.02107076923076923,-0.14171461538461538,0.18119,-0.9230769230769231,-1.1538461538461537,-0.6153846153846154,0.0,-0.15384615384615385,-0.5384615384615384,-1.3076923076923077,-2.1538461538461537,0.5576923076923077,0.3269230769230769,-2.0096153846153846,0.13054,-0.053110000000000004,-0.05205384615384616,0.17515692307692307
Julia,0.0,0.0,0.0,-0.4375,0.125,0.75,0.3125,0.5,0.5625,0.0625,0.0,0.0,0.0,0.0,0.0,0.0,0.0,0.0,-0.017975,0.042114375,0.049408125,4.9375,1.0625,-0.5625,-0.1875,-0.75,-0.25,-0.625,4.0,3.58984375,4.10546875,-4.4140625,-0.026561875,-0.003051875,-0.0218775,-0.052085625,-0.1004025,0.071655625,0.04000875,0.25,-1.5,-1.9375,-1.75,-3.0625,-2.3125,-0.375,0.5,5.54296875,15.5625,-10.71484375,-0.060200000000000004,0.0250475,-0.07359312500000001,-0.07717125,-0.10406499999999999,0.042114375,-0.024596875,1.8125,1.1875,3.125,1.4375,-0.3125,-0.75,0.5,5.4375,0.98828125,5.203125,-1.38671875,-0.052718749999999995,0.045467499999999994,-0.087169375,-0.05638875
Julia,0.0,0.0,0.0,-1.0,-2.3,-1.4,-1.1,-0.9,-0.6,0.0,-2.7,0.0,0.0,0.0,0.0,0.0,0.0,0.0,-0.132715,0.17026400000000003,0.11084000000000001,-2.7,-1.0,3.0,2.0,1.6,1.7,1.0,-1.0,8.4875,23.93125,-24.39375,-0.084991,-0.096918,0.041486,0.14715,-0.145459,0.08740200000000001,0.023584,0.1,0.5,-3.3,-1.7,-0.2,-0.8,-0.1,8.5,3.0875,24.48125,-16.175,-0.051544,-0.141754,0.00932,0.13091400000000003,-0.158399,0.06582099999999999,-0.039746000000000004,-4.0,-2.0,-5.0,-2.1,0.9,0.4,-6.9,-9.2,-2.425,5.825,1.675,-0.047363,-0.155828,-0.0036500000000000005,0.116022
Julia,0.0,0.0,0.0,0.0,-0.15384615384615385,-0.15384615384615385,0.23076923076923078,0.3076923076923077,0.38461538461538464,0.15384615384615385,0.15384615384615385,0.0,0.0,0.0,0.0,0.0,0.0,0.0,0.006873846153846153,-0.03147538461538461,0.07282923076923077,-0.07692307692307693,-0.15384615384615385,-0.23076923076923078,0.5384615384615384,0.0,-0.6923076923076923,-0.5384615384615384,-0.07692307692307693,-1.2644230769230769,0.32211538461538464,0.5576923076923077,-0.01629153846153846,8.730769230769231E-4,0.016573076923076923,-0.07332692307692308,0.0021415384615384617,-0.08533692307692306,0.1266153846153846,-0.23076923076923078,0.07692307692307693,-0.23076923076923078,-0.07692307692307693,0.6153846153846154,0.07692307692307693,-0.07692307692307693,-0.23076923076923078,-4.975961538461538,2.0528846153846154,-3.894230769230769,-0.03245153846153846,0.009606153846153846,0.045780769230769236,-0.14292615384615384,0.006685384615384616,-0.09164692307692307,0.12496230769230768,-0.3076923076923077,-0.6923076923076923,-0.7692307692307693,-1.2307692307692308,-1.0,-1.3076923076923077,-0.9230769230769231,-0.3076923076923077,0.004807692307692308,-0.3894230769230769,-1.4951923076923077,-0.03818923076923077,0.00815076923076923,0.04734000000000001,-0.14108076923076923
Julia,0.0,0.0,0.0,0.07142857142857142,0.21428571428571427,0.35714285714285715,0.21428571428571427,0.5,0.5,0.07142857142857142,0.2857142857142857,0.0,0.0,0.0,0.0,0.0,0.0,0.0,-0.008021428571428572,-0.07990357142857143,0.11544357142857144,-0.2857142857142857,-0.21428571428571427,0.07142857142857142,0.35714285714285715,0.35714285714285715,-0.6428571428571429,-0.7142857142857143,-0.2857142857142857,-0.6294642857142857,0.78125,-0.25,0.12967357142857144,-0.03998714285714285,0.017486428571428573,-0.04108071428571428,-0.0077428571428571425,-0.08248500000000002,0.11383928571428571,-0.5,-0.6428571428571429,-1.1428571428571428,-1.0714285714285714,-1.2142857142857142,-0.8571428571428571,-0.8571428571428571,-1.1428571428571428,0.3794642857142857,-0.13839285714285715,-1.5267857142857142,0.12888000000000002,-0.03969428571428572,0.017495,-0.043766428571428574,-0.0023021428571428568,-0.08311285714285714,0.1147457142857143,-0.2857142857142857,-0.35714285714285715,-0.7857142857142857,-1.2142857142857142,-0.8571428571428571,-1.0,-0.9285714285714286,0.5,-0.33482142857142855,-0.044642857142857144,-1.0714285714285714,0.12793785714285713,-0.040623571428571426,0.016178571428571428,-0.04613428571428572
Julia,0.0,0.0,0.0,1.0833333333333333,0.25,0.08333333333333333,0.0,0.0,-0.16666666666666666,-0.3333333333333333,-0.08333333333333333,0.0,0.0,0.0,0.0,0.0,0.0,0.0,-0.014323333333333334,0.05566416666666666,0.07291666666666667,-0.9166666666666666,-1.0,-2.4166666666666665,-2.0,-2.1666666666666665,-1.6666666666666667,-0.75,-1.75,0.6927083333333334,1.7708333333333333,-2.0,-0.03241,-0.00501,-0.026474166666666663,-0.07189416666666666,-0.12520333333333333,0.11706583333333333,0.08553083333333333,0.75,-0.08333333333333333,1.5,0.3333333333333333,-4.083333333333333,-5.666666666666667,-0.5833333333333334,-4.5,9.776041666666666,28.755208333333332,-15.177083333333334,-0.07040416666666667,0.02780166666666667,-0.0843,-0.12210583333333332,-0.17907666666666666,0.07556166666666667,-0.008790000000000001,2.1666666666666665,0.6666666666666666,0.3333333333333333,-0.08333333333333333,1.0833333333333333,0.25,0.5,9.833333333333334,7.807291666666667,21.59375,-9.161458333333334,-0.09697,0.10059083333333334,-0.16189583333333332,-0.1294141666666667
Julia,0.0,0.0,0.0,1.4166666666666667,1.1666666666666667,0.4166666666666667,0.5,0.4166666666666667,-0.25,-0.3333333333333333,0.08333333333333333,0.0,0.0,0.0,0.0,0.0,0.0,0.0,-0.005493333333333334,0.049397500000000004,0.06779,0.4166666666666667,-0.25,-0.5,-0.3333333333333333,-0.5833333333333334,-0.3333333333333333,-0.16666666666666666,-0.16666666666666666,-0.03125,0.10416666666666667,-0.1875,-0.02093,-0.00382,-0.0254825,-0.07644166666666667,-0.04992666666666667,0.16687,0.21407083333333335,-2.75,-5.833333333333333,-2.9166666666666665,-2.8333333333333335,-12.166666666666666,-10.916666666666666,-2.25,-0.5833333333333334,6.9375,9.942708333333334,-15.807291666666666,-0.07030750000000001,-0.0032708333333333335,-0.08184333333333334,-0.22548416666666662,-0.09366833333333334,0.09008749999999999,0.09598833333333334,3.6666666666666665,3.75,-1.8333333333333333,1.1666666666666667,1.75,0.8333333333333334,-3.5833333333333335,-1.6666666666666667,3.7447916666666665,14.109375,-11.265625,-0.061900000000000004,0.030751666666666667,-0.07139583333333334,-0.13377333333333333
Julia,0.0,0.0,0.0,2.1,1.8,0.1,0.0,-0.2,-0.4,0.0,1.0,0.0,0.0,0.0,0.0,0.0,0.0,0.0,0.0,0.0,0.0,0.9,3.6,0.6,-0.6,-4.9,-2.8,-1.4,-1.8,0.0,0.0,0.0,0.0,0.0,0.0,0.0,-0.083691,0.065723,0.038135,4.5,6.2,2.5,0.9,-2.4,-1.9,2.3,3.1,7.96875,14.95,-11.20625,-0.036981,0.029742,-0.054254000000000004,-0.069318,-0.198486,0.092822,-0.034472,-0.4,-0.1,2.2,0.2,-2.3,-2.7,-3.9,-6.4,1.59375,21.65,-2.5125,-0.103357,0.140704,-0.183502,-0.160699
Julia,0.0,0.0,0.0,3.272727272727273,1.9090909090909092,0.2727272727272727,1.1818181818181819,3.727272727272727,2.6363636363636362,1.8181818181818181,4.545454545454546,0.0,0.0,0.0,0.0,0.0,0.0,0.0,-0.11319272727272728,0.12939454545454546,0.12717454545454546,8.181818181818182,6.090909090909091,5.2727272727272725,2.0,0.7272727272727273,2.1818181818181817,5.0,8.909090909090908,12.102272727272727,26.625,-17.97159090909091,-0.06397636363636364,0.017778181818181818,-0.07612181818181818,-0.15115545454545457,-0.14217909090909092,0.09193000000000001,0.04350090909090909,2.4545454545454546,-0.09090909090909091,2.3636363636363638,2.0,3.272727272727273,6.0,5.636363636363637,-4.636363636363637,8.931818181818182,26.676136363636363,-16.460227272727273,-0.07040636363636364,0.0628381818181818,-0.10378181818181818,-0.11556181818181818,-0.22931454545454547,0.10648909090909092,-0.05118090909090909,-5.363636363636363,-0.09090909090909091,1.4545454545454546,0.6363636363636364,-0.45454545454545453,-2.1818181818181817,0.36363636363636365,-4.909090909090909,4.721590909090909,-2.653409090909091,-3.465909090909091,-0.0926509090909091,0.12417363636363636,-0.17181454545454547,-0.1444318181818182
